time /s	I /nA	
0.100	36.206	
0.200	-22.537	
0.300	-9.590	
0.400	-18.139	
0.500	-15.810	
0.600	-19.392	
0.700	-17.722	
0.800	-8.466	
0.900	-0.963	
1.000	-23.514	
1.100	-19.411	
1.200	-6.539	
1.300	-0.574	
1.400	9.997	
1.500	-27.237	
1.600	-16.604	
1.700	-12.894	
1.800	-11.957	
1.900	-22.483	
2.000	-34.997	
2.100	-24.785	
2.200	-6.211	
2.300	-13.705	
2.400	-26.851	
2.500	-16.074	
2.600	-11.216	
2.700	-16.411	
2.800	-35.774	
2.900	-29.081	
3.000	-0.971	
3.100	-12.250	
3.200	-11.031	
3.300	-6.340	
3.400	-17.260	
3.500	-25.365	
3.600	-11.296	
3.700	-15.213	
3.800	-2.773	
3.900	-12.353	
4.000	-29.254	
4.100	-6.046	
4.200	-0.931	
4.300	-27.972	
4.400	-16.678	
4.500	-24.366	
4.600	-11.466	
4.700	-12.041	
4.800	0.661	
4.900	-5.193	
5.000	-1.949	
5.100	-14.619	
5.200	-14.754	
5.300	-1.781	
5.400	-0.691	
5.500	-28.083	
5.600	11.588	
5.700	-15.516	
5.800	-21.038	
5.900	-19.594	
6.000	-8.415	
6.100	-8.583	
6.200	-10.783	
6.300	-16.769	
6.400	-5.983	
6.500	-2.468	
6.600	-6.788	
6.700	-33.218	
6.800	-12.173	
6.900	5.057	
7.000	-1.812	
7.100	-44.325	
7.200	-5.833	
7.300	-15.200	
7.400	-10.490	
7.500	-5.383	
7.600	-20.833	
7.700	-9.605	
7.800	-33.498	
7.900	-8.798	
8.000	-29.876	
8.100	-10.844	
8.200	-0.361	
8.300	-3.877	
8.400	-10.061	
8.500	-13.100	
8.600	-17.271	
8.700	-10.991	
8.800	-8.517	
8.900	-16.934	
9.000	-17.108	
9.100	-2.447	
9.200	-20.093	
9.300	-7.344	
9.400	-13.419	
9.500	-11.847	
9.600	-21.661	
9.700	-8.860	
9.800	-21.343	
9.900	-23.724	
10.000	-2.233	
10.100	-7.860	
10.200	-0.563	
10.300	-13.796	
10.400	-34.802	
10.500	-11.093	
10.600	-10.716	
10.700	-11.628	
10.800	-10.765	
10.900	-16.034	
11.000	-10.903	
11.100	-21.570	
11.200	-2.731	
11.300	-16.012	
11.400	-8.074	
11.500	-16.597	
11.600	-18.526	
11.700	10.269	
11.800	-25.296	
11.900	-18.002	
12.000	-24.467	
12.100	-16.430	
12.200	-8.575	
12.300	-7.969	
12.400	-9.307	
12.500	-15.190	
12.600	-4.174	
12.700	-12.439	
12.800	5.998	
12.900	9.026	
13.000	-21.482	
13.100	2.849	
13.200	-29.420	
13.300	-0.863	
13.400	-5.767	
13.500	-17.476	
13.600	-9.546	
13.700	-3.174	
13.800	1.556	
13.900	-19.149	
14.000	-4.356	
14.100	-12.792	
14.200	-16.586	
14.300	-6.576	
14.400	-8.126	
14.500	-16.745	
14.600	-2.642	
14.700	4.463	
14.800	5.941	
14.900	-31.252	
15.000	-22.468	
15.100	-4.858	
15.200	-9.447	
15.300	-27.822	
15.400	-13.034	
15.500	-19.957	
15.600	-6.912	
15.700	7.036	
15.800	-12.632	
15.900	-14.092	
16.000	-25.946	
16.100	-12.447	
16.200	-10.008	
16.300	-20.812	
16.400	-5.896	
16.500	-2.525	
16.600	-12.525	
16.700	-5.305	
16.800	-16.773	
16.900	-7.757	
17.000	-21.227	
17.100	1.487	
17.200	-21.715	
17.300	-27.105	
17.400	-5.735	
17.500	-4.913	
17.600	-18.905	
17.700	-27.251	
17.800	-2.064	
17.900	-13.206	
18.000	0.512	
18.100	2.197	
18.200	-1.439	
18.300	-18.223	
18.400	-15.635	
18.500	7.642	
18.600	-20.175	
18.700	-20.197	
18.800	-3.645	
18.900	-3.533	
19.000	-26.694	
19.100	-22.736	
19.200	-18.911	
19.300	-33.452	
19.400	-6.156	
19.500	13.921	
19.600	-14.382	
19.700	-5.495	
19.800	-11.711	
19.900	-14.641	
20.000	-13.164	
20.100	-10.171	
20.200	12.372	
20.300	-16.314	
20.400	-16.504	
20.500	-24.210	
20.600	-2.617	
20.700	-2.298	
20.800	-20.878	
20.900	-16.008	
21.000	0.679	
21.100	-20.555	
21.200	-4.397	
21.300	-15.228	
21.400	-5.796	
21.500	-9.386	
21.600	0.676	
21.700	-42.380	
21.800	-21.286	
21.900	-18.383	
22.000	-2.225	
22.100	-0.931	
22.200	-0.734	
22.300	-9.082	
22.400	-2.890	
22.500	-26.330	
22.600	-7.545	
22.700	12.222	
22.800	-26.216	
22.900	-8.738	
23.000	-14.945	
23.100	-31.092	
23.200	-0.905	
23.300	7.427	
23.400	-13.935	
23.500	-14.024	
23.600	-12.693	
23.700	5.611	
23.800	-8.783	
23.900	-19.575	
24.000	-15.096	
24.100	-32.029	
24.200	-3.182	
24.300	-2.607	
24.400	-12.443	
24.500	-12.378	
24.600	-11.574	
24.700	-7.999	
24.800	-15.835	
24.900	-10.140	
25.000	-27.796	
25.100	-18.253	
25.200	-10.122	
25.300	-13.194	
25.400	-3.795	
25.500	-8.604	
25.600	4.979	
25.700	-16.784	
25.800	-10.688	
25.900	-3.620	
26.000	-20.886	
26.100	-16.359	
26.200	-1.311	
26.300	-17.512	
26.400	-3.731	
26.500	-9.285	
26.600	-10.362	
26.700	-13.127	
26.800	6.095	
26.900	-7.177	
27.000	1.550	
27.100	-12.025	
27.200	-28.511	
27.300	-0.645	
27.400	-0.530	
27.500	1.909	
27.600	-11.392	
27.700	-16.103	
27.800	-1.032	
27.900	-13.036	
28.000	-11.711	
28.100	-34.508	
28.200	-7.621	
28.300	-16.363	
28.400	-15.199	
28.500	1.201	
28.600	-11.729	
28.700	-14.555	
28.800	-12.295	
28.900	-0.581	
29.000	8.260	
29.100	-17.271	
29.200	-17.999	
29.300	-22.721	
29.400	-14.859	
29.500	0.638	
29.600	-18.478	
29.700	-8.149	
29.800	-13.377	
29.900	-8.340	
30.000	-2.479	
30.100	-5.083	
30.200	-17.612	
30.300	-9.299	
30.400	-13.783	
30.500	-11.605	
30.600	12.689	
30.700	-18.350	
30.800	-8.997	
30.900	-7.334	
31.000	-11.578	
31.100	-8.154	
31.200	-15.010	
31.300	-8.726	
31.400	4.620	
31.500	-16.736	
31.600	-17.954	
31.700	9.560	
31.800	-1.174	
31.900	-7.519	
32.000	5.583	
32.100	4.806	
32.200	0.137	
32.300	0.831	
32.400	5.537	
32.500	-16.395	
32.600	8.509	
32.700	-8.517	
32.800	19.444	
32.900	-16.582	
33.000	-8.659	
33.100	5.323	
33.200	-4.580	
33.300	0.539	
33.400	-10.893	
33.500	-3.454	
33.600	-14.053	
33.700	9.824	
33.800	5.598	
33.900	9.002	
34.000	11.435	
34.100	-15.769	
34.200	27.623	
34.300	6.948	
34.400	8.045	
34.500	-5.702	
34.600	7.504	
34.700	-0.892	
34.800	-3.059	
34.900	11.854	
35.000	-1.542	
35.100	9.534	
35.200	15.415	
35.300	3.522	
35.400	-3.778	
35.500	0.552	
35.600	3.547	
35.700	-11.253	
35.800	8.455	
35.900	-2.547	
36.000	-7.691	
36.100	-8.370	
36.200	20.548	
36.300	15.877	
36.400	2.472	
36.500	19.656	
36.600	-3.028	
36.700	19.013	
36.800	-1.945	
36.900	14.105	
37.000	28.338	
37.100	-1.729	
37.200	-21.172	
37.300	12.649	
37.400	12.899	
37.500	10.911	
37.600	16.617	
37.700	17.881	
37.800	-6.941	
37.900	8.198	
38.000	18.161	
38.100	0.202	
38.200	5.346	
38.300	13.482	
38.400	-0.252	
38.500	39.603	
38.600	26.044	
38.700	-4.566	
38.800	15.559	
38.900	4.117	
39.000	15.078	
39.100	11.089	
39.200	13.699	
39.300	15.117	
39.400	27.385	
39.500	-0.585	
39.600	9.602	
39.700	6.718	
39.800	19.357	
39.900	4.149	
40.000	23.840	
40.100	9.953	
40.200	18.126	
40.300	-15.956	
40.400	-0.602	
40.500	23.313	
40.600	5.052	
40.700	31.026	
40.800	7.147	
40.900	0.355	
41.000	3.599	
41.100	3.439	
41.200	11.939	
41.300	8.445	
41.400	29.359	
41.500	4.180	
41.600	-1.750	
41.700	23.844	
41.800	6.710	
41.900	-6.002	
42.000	4.403	
42.100	32.142	
42.200	-2.578	
42.300	19.170	
42.400	28.129	
42.500	11.858	
42.600	7.527	
42.700	2.666	
42.800	7.601	
42.900	16.998	
43.000	1.419	
43.100	12.878	
43.200	13.817	
43.300	6.595	
43.400	-0.868	
43.500	17.020	
43.600	6.727	
43.700	11.536	
43.800	-4.897	
43.900	6.670	
44.000	22.007	
44.100	11.185	
44.200	-5.975	
44.300	21.939	
44.400	12.716	
44.500	-1.407	
44.600	17.158	
44.700	12.190	
44.800	12.143	
44.900	10.371	
45.000	9.512	
45.100	6.852	
45.200	-4.366	
45.300	3.081	
45.400	29.620	
45.500	4.070	
45.600	17.696	
45.700	0.163	
45.800	1.567	
45.900	-4.070	
46.000	1.677	
46.100	12.586	
46.200	9.146	
46.300	12.827	
46.400	-3.779	
46.500	10.063	
46.600	-2.658	
46.700	10.461	
46.800	14.599	
46.900	-5.327	
47.000	27.838	
47.100	10.529	
47.200	0.296	
47.300	-5.676	
47.400	-1.310	
47.500	26.862	
47.600	5.503	
47.700	14.325	
47.800	41.102	
47.900	-2.707	
48.000	10.866	
48.100	20.172	
48.200	0.138	
48.300	3.304	
48.400	20.109	
48.500	17.554	
48.600	12.945	
48.700	21.523	
48.800	22.668	
48.900	16.789	
49.000	-7.682	
49.100	-3.119	
49.200	13.468	
49.300	1.123	
49.400	18.638	
49.500	30.517	
49.600	10.013	
49.700	5.202	
49.800	8.396	
49.900	28.257	
50.000	29.710	
50.100	6.364	
50.200	-27.198	
50.300	11.219	
50.400	14.293	
50.500	10.674	
50.600	27.681	
50.700	11.592	
50.800	10.353	
50.900	-6.038	
51.000	10.632	
51.100	19.268	
51.200	2.367	
51.300	20.501	
51.400	17.684	
51.500	10.413	
51.600	6.135	
51.700	37.010	
51.800	17.583	
51.900	8.509	
52.000	14.074	
52.100	0.791	
52.200	6.074	
52.300	21.496	
52.400	29.428	
52.500	10.990	
52.600	13.279	
52.700	2.907	
52.800	1.622	
52.900	9.556	
53.000	20.133	
53.100	19.699	
53.200	-6.863	
53.300	28.875	
53.400	11.385	
53.500	5.583	
53.600	14.449	
53.700	18.820	
53.800	12.166	
53.900	24.219	
54.000	14.172	
54.100	29.831	
54.200	27.809	
54.300	9.685	
54.400	14.458	
54.500	33.798	
54.600	5.666	
54.700	15.328	
54.800	26.062	
54.900	11.178	
55.000	22.599	
55.100	7.824	
55.200	20.090	
55.300	13.943	
55.400	17.303	
55.500	28.124	
55.600	8.046	
55.700	28.853	
55.800	13.322	
55.900	20.377	
56.000	15.156	
56.100	17.878	
56.200	31.145	
56.300	20.157	
56.400	22.834	
56.500	6.064	
56.600	32.044	
56.700	15.245	
56.800	19.013	
56.900	17.397	
57.000	2.279	
57.100	29.807	
57.200	27.298	
57.300	9.175	
57.400	8.250	
57.500	-4.724	
57.600	7.263	
57.700	21.346	
57.800	-0.506	
57.900	35.487	
58.000	18.704	
58.100	8.037	
58.200	17.583	
58.300	16.257	
58.400	33.060	
58.500	18.890	
58.600	-1.861	
58.700	26.255	
58.800	17.157	
58.900	9.010	
59.000	2.102	
59.100	29.527	
59.200	20.997	
59.300	1.615	
59.400	8.872	
59.500	15.408	
59.600	19.095	
59.700	22.072	
59.800	17.284	
59.900	2.375	
60.000	2.225	
60.100	35.014	
60.200	6.432	
60.300	39.196	
60.400	11.074	
60.500	17.958	
60.600	17.823	
60.700	10.801	
60.800	-3.379	
60.900	13.965	
61.000	37.162	
61.100	28.744	
61.200	8.438	
61.300	25.453	
61.400	28.705	
61.500	10.056	
61.600	29.953	
61.700	0.458	
61.800	19.557	
61.900	20.759	
62.000	17.002	
62.100	-7.647	
62.200	28.352	
62.300	15.431	
62.400	26.700	
62.500	8.793	
62.600	16.482	
62.700	15.453	
62.800	13.271	
62.900	16.439	
63.000	29.078	
63.100	2.638	
63.200	27.390	
63.300	17.372	
63.400	35.250	
63.500	26.949	
63.600	27.326	
63.700	-0.115	
63.800	-10.115	
63.900	35.780	
64.000	10.281	
64.100	19.985	
64.200	29.115	
64.300	25.014	
64.400	18.870	
64.500	17.364	
64.600	24.541	
64.700	13.344	
64.800	22.192	
64.900	29.960	
65.000	29.103	
65.100	4.235	
65.200	47.907	
65.300	14.960	
65.400	24.933	
65.500	-2.462	
65.600	31.549	
65.700	27.024	
65.800	18.229	
65.900	39.178	
66.000	20.203	
66.100	22.987	
66.200	16.597	
66.300	30.112	
66.400	25.497	
66.500	34.546	
66.600	14.526	
66.700	33.691	
66.800	27.176	
66.900	29.606	
67.000	24.434	
67.100	30.001	
67.200	26.255	
67.300	29.257	
67.400	18.996	
67.500	43.550	
67.600	30.748	
67.700	12.742	
67.800	22.860	
67.900	29.310	
68.000	28.706	
68.100	24.384	
68.200	28.300	
68.300	20.677	
68.400	44.711	
68.500	16.481	
68.600	30.787	
68.700	13.723	
68.800	22.822	
68.900	25.866	
69.000	34.560	
69.100	20.879	
69.200	19.683	
69.300	40.901	
69.400	30.362	
69.500	12.725	
69.600	44.628	
69.700	30.527	
69.800	37.133	
69.900	24.583	
70.000	18.944	
70.100	10.486	
70.200	38.703	
70.300	34.377	
70.400	12.636	
70.500	6.087	
70.600	30.187	
70.700	17.603	
70.800	20.086	
70.900	28.108	
71.000	25.956	
71.100	9.360	
71.200	29.438	
71.300	15.065	
71.400	34.728	
71.500	27.893	
71.600	41.695	
71.700	16.908	
71.800	17.450	
71.900	5.607	
72.000	55.635	
72.100	31.045	
72.200	35.996	
72.300	38.264	
72.400	25.536	
72.500	35.302	
72.600	31.543	
72.700	27.698	
72.800	17.814	
72.900	26.216	
73.000	33.825	
73.100	27.694	
73.200	26.210	
73.300	23.644	
73.400	32.703	
73.500	53.502	
73.600	17.935	
73.700	21.161	
73.800	34.821	
73.900	24.543	
74.000	35.053	
74.100	33.052	
74.200	31.184	
74.300	28.248	
74.400	28.984	
74.500	23.544	
74.600	26.733	
74.700	15.411	
74.800	33.132	
74.900	23.917	
75.000	25.371	
75.100	35.668	
75.200	12.899	
75.300	23.168	
75.400	32.570	
75.500	31.499	
75.600	23.097	
75.700	36.850	
75.800	46.806	
75.900	46.079	
76.000	16.705	
76.100	20.924	
76.200	44.899	
76.300	39.411	
76.400	20.551	
76.500	24.056	
76.600	25.178	
76.700	27.654	
76.800	32.513	
76.900	21.082	
77.000	27.894	
77.100	28.349	
77.200	24.208	
77.300	43.144	
77.400	37.763	
77.500	13.413	
77.600	52.190	
77.700	34.655	
77.800	33.976	
77.900	20.603	
78.000	40.608	
78.100	35.304	
78.200	24.443	
78.300	7.542	
78.400	22.769	
78.500	30.826	
78.600	48.392	
78.700	33.454	
78.800	33.549	
78.900	12.084	
79.000	30.238	
79.100	33.977	
79.200	22.526	
79.300	18.800	
79.400	19.132	
79.500	31.956	
79.600	42.111	
79.700	35.604	
79.800	26.055	
79.900	36.301	
80.000	35.777	
80.100	17.281	
80.200	30.975	
80.300	34.020	
80.400	22.824	
80.500	54.067	
80.600	44.268	
80.700	34.976	
80.800	17.293	
80.900	25.452	
81.000	17.487	
81.100	28.145	
81.200	18.695	
81.300	47.632	
81.400	25.197	
81.500	27.496	
81.600	25.757	
81.700	19.361	
81.800	32.551	
81.900	32.192	
82.000	25.758	
82.100	59.633	
82.200	29.454	
82.300	23.407	
82.400	14.669	
82.500	18.446	
82.600	16.842	
82.700	26.222	
82.800	39.074	
82.900	41.647	
83.000	11.307	
83.100	36.695	
83.200	32.918	
83.300	22.329	
83.400	57.941	
83.500	48.642	
83.600	15.719	
83.700	18.438	
83.800	44.033	
83.900	33.999	
84.000	26.733	
84.100	36.272	
84.200	45.290	
84.300	28.424	
84.400	26.747	
84.500	37.089	
84.600	31.822	
84.700	42.832	
84.800	31.384	
84.900	8.432	
85.000	14.607	
85.100	54.835	
85.200	41.826	
85.300	17.717	
85.400	28.914	
85.500	34.752	
85.600	35.083	
85.700	18.369	
85.800	28.940	
85.900	24.662	
86.000	26.119	
86.100	21.998	
86.200	51.070	
86.300	19.055	
86.400	27.426	
86.500	38.810	
86.600	36.191	
86.700	19.177	
86.800	23.260	
86.900	30.044	
87.000	35.586	
87.100	42.758	
87.200	37.503	
87.300	32.772	
87.400	30.798	
87.500	6.717	
87.600	53.834	
87.700	38.318	
87.800	33.157	
87.900	27.532	
88.000	32.727	
88.100	39.117	
88.200	19.588	
88.300	17.016	
88.400	41.360	
88.500	47.312	
88.600	40.816	
88.700	26.059	
88.800	23.926	
88.900	35.959	
89.000	46.030	
89.100	34.505	
89.200	32.584	
89.300	38.496	
89.400	29.296	
89.500	33.948	
89.600	23.625	
89.700	42.831	
89.800	26.776	
89.900	45.412	
90.000	40.907	
90.100	24.001	
90.200	52.714	
90.300	33.530	
90.400	19.403	
90.500	28.442	
90.600	28.498	
90.700	29.093	
90.800	14.429	
90.900	46.834	
91.000	11.091	
91.100	11.192	
91.200	28.867	
91.300	35.361	
91.400	16.256	
91.500	21.415	
91.600	18.164	
91.700	0.684	
91.800	32.159	
91.900	10.621	
92.000	19.768	
92.100	16.621	
92.200	26.447	
92.300	9.800	
92.400	12.565	
92.500	18.219	
92.600	23.621	
92.700	-16.907	
92.800	-8.551	
92.900	27.146	
93.000	9.116	
93.100	9.963	
93.200	-0.069	
93.300	21.365	
93.400	16.485	
93.500	7.977	
93.600	10.229	
93.700	7.264	
93.800	16.916	
93.900	-1.314	
94.000	12.714	
94.100	13.661	
94.200	-4.697	
94.300	-6.707	
94.400	25.129	
94.500	0.382	
94.600	6.486	
94.700	15.608	
94.800	8.321	
94.900	8.484	
95.000	12.400	
95.100	0.618	
95.200	4.273	
95.300	3.799	
95.400	0.415	
95.500	15.844	
95.600	3.420	
95.700	14.134	
95.800	-3.599	
95.900	2.752	
96.000	11.487	
96.100	9.029	
96.200	20.234	
96.300	-11.372	
96.400	11.138	
96.500	5.863	
96.600	0.190	
96.700	13.533	
96.800	-7.141	
96.900	-7.855	
97.000	15.710	
97.100	12.268	
97.200	8.328	
97.300	9.589	
97.400	-3.490	
97.500	6.900	
97.600	-4.190	
97.700	8.668	
97.800	2.283	
97.900	-13.971	
98.000	-11.066	
98.100	-15.731	
98.200	-4.352	
98.300	16.492	
98.400	13.462	
98.500	0.463	
98.600	-5.335	
98.700	-11.363	
98.800	21.879	
98.900	-9.251	
99.000	7.025	
99.100	1.052	
99.200	-8.074	
99.300	-14.403	
99.400	-8.164	
99.500	-2.687	
99.600	5.855	
99.700	-5.162	
99.800	3.980	
99.900	-12.163	
100.000	4.438	
100.100	1.697	
100.200	-19.112	
100.300	-5.193	
100.400	19.439	
100.500	-6.613	
100.600	-30.055	
100.700	6.506	
100.800	7.135	
100.900	3.917	
101.000	5.868	
101.100	-4.719	
101.200	-3.653	
101.300	-13.302	
101.400	-10.584	
101.500	6.643	
101.600	11.912	
101.700	2.701	
101.800	-10.430	
101.900	-21.439	
102.000	19.376	
102.100	-11.377	
102.200	-10.545	
102.300	-3.710	
102.400	-0.330	
102.500	-9.526	
102.600	-5.235	
102.700	7.744	
102.800	-4.278	
102.900	-6.159	
103.000	-4.395	
103.100	-8.260	
103.200	-5.826	
103.300	-4.056	
103.400	-9.165	
103.500	1.809	
103.600	8.136	
103.700	-8.007	
103.800	2.227	
103.900	-17.308	
104.000	-23.528	
104.100	2.746	
104.200	-6.078	
104.300	-3.248	
104.400	-10.047	
104.500	-10.992	
104.600	-9.561	
104.700	-13.590	
104.800	18.546	
104.900	-9.993	
105.000	-14.660	
105.100	-3.705	
105.200	-6.038	
105.300	-5.448	
105.400	13.186	
105.500	-19.681	
105.600	-16.312	
105.700	-7.020	
105.800	-1.856	
105.900	-1.977	
106.000	-5.638	
106.100	1.348	
106.200	-10.537	
106.300	-4.594	
106.400	-12.326	
106.500	-15.511	
106.600	-7.010	
106.700	12.416	
106.800	-3.164	
106.900	-39.301	
107.000	17.462	
107.100	5.216	
107.200	-34.411	
107.300	8.711	
107.400	-10.484	
107.500	3.245	
107.600	-22.100	
107.700	6.928	
107.800	-14.947	
107.900	-6.842	
108.000	0.222	
108.100	3.297	
108.200	-9.660	
108.300	-25.957	
108.400	-4.578	
108.500	-6.122	
108.600	-12.229	
108.700	-12.025	
108.800	-16.051	
108.900	-5.621	
109.000	-6.947	
109.100	-12.421	
109.200	-6.174	
109.300	-23.282	
109.400	-3.921	
109.500	-22.316	
109.600	-0.241	
109.700	-4.330	
109.800	-43.783	
109.900	-2.051	
110.000	1.703	
110.100	-5.067	
110.200	-16.244	
110.300	-11.855	
110.400	-31.237	
110.500	-25.133	
110.600	-7.341	
110.700	-35.326	
110.800	-18.904	
110.900	-13.894	
111.000	-0.291	
111.100	-17.635	
111.200	0.191	
111.300	-23.493	
111.400	-0.885	
111.500	-7.637	
111.600	-14.097	
111.700	-17.233	
111.800	-6.702	
111.900	-24.752	
112.000	1.186	
112.100	-3.619	
112.200	-8.530	
112.300	-10.041	
112.400	2.725	
112.500	-13.029	
112.600	10.988	
112.700	-15.862	
112.800	-27.719	
112.900	8.838	
113.000	-25.619	
113.100	-8.655	
113.200	-3.470	
113.300	-16.691	
113.400	2.377	
113.500	-6.294	
113.600	-18.365	
113.700	-23.231	
113.800	-12.159	
113.900	-5.131	
114.000	-16.199	
114.100	-16.643	
114.200	-0.048	
114.300	-18.764	
114.400	-12.757	
114.500	-7.276	
114.600	2.782	
114.700	-9.224	
114.800	-6.451	
114.900	-26.896	
115.000	5.828	
115.100	-23.548	
115.200	-12.380	
115.300	-16.294	
115.400	-5.122	
115.500	6.150	
115.600	-10.913	
115.700	-20.323	
115.800	-16.321	
115.900	-0.637	
116.000	4.577	
116.100	-21.789	
116.200	-14.033	
116.300	-35.699	
116.400	-21.652	
116.500	-4.712	
116.600	-4.326	
116.700	-15.309	
116.800	-4.806	
116.900	-9.958	
117.000	-23.847	
117.100	-7.673	
117.200	-2.615	
117.300	-19.683	
117.400	-36.367	
117.500	-10.587	
117.600	3.775	
117.700	-17.331	
117.800	-0.829	
117.900	-30.291	
118.000	-8.878	
118.100	-18.223	
118.200	-18.122	
118.300	-8.473	
118.400	-27.227	
118.500	-14.465	
118.600	0.978	
118.700	-2.443	
118.800	15.147	
118.900	-26.738	
119.000	-9.265	
119.100	16.490	
119.200	-12.702	
119.300	-11.407	
119.400	-9.461	
119.500	-25.658	
119.600	-26.303	
119.700	-29.370	
119.800	-16.899	
119.900	-24.639	
120.000	-5.917	
120.100	-5.784	
120.200	-11.467	
120.300	-29.591	
120.400	-13.354	
120.500	-22.605	
120.600	-24.769	
120.700	-15.813	
120.800	-18.437	
120.900	-10.908	
121.000	-4.237	
121.100	0.777	
121.200	-12.556	
121.300	-25.330	
121.400	-3.880	
121.500	-16.364	
121.600	-21.046	
121.700	-13.717	
121.800	-16.275	
121.900	12.597	
122.000	-6.507	
122.100	-19.364	
122.200	-9.042	
122.300	-22.448	
122.400	-14.943	
122.500	-19.496	
122.600	-9.248	
122.700	-0.192	
122.800	-20.503	
122.900	-24.321	
123.000	-4.208	
123.100	-33.585	
123.200	-19.350	
123.300	-15.814	
123.400	-12.382	
123.500	-4.345	
123.600	5.208	
123.700	-7.243	
123.800	-28.015	
123.900	-26.596	
124.000	-1.900	
124.100	-18.807	
124.200	-15.838	
124.300	-10.363	
124.400	-8.470	
124.500	-18.490	
124.600	2.346	
124.700	-24.143	
124.800	-32.096	
124.900	-5.914	
125.000	-10.218	
125.100	-18.744	
125.200	-14.380	
125.300	-18.244	
125.400	10.525	
125.500	-17.662	
125.600	-22.506	
125.700	-34.939	
125.800	-6.331	
125.900	-16.650	
126.000	-27.544	
126.100	-15.346	
126.200	-22.282	
126.300	-4.721	
126.400	-15.144	
126.500	-14.975	
126.600	-16.565	
126.700	-5.096	
126.800	-2.467	
126.900	-23.002	
127.000	15.624	
127.100	-15.403	
127.200	-24.058	
127.300	-1.571	
127.400	-3.426	
127.500	-34.381	
127.600	5.234	
127.700	-15.988	
127.800	2.606	
127.900	-19.925	
128.000	-38.316	
128.100	-26.297	
128.200	-14.505	
128.300	-10.492	
128.400	-10.047	
128.500	-14.511	
128.600	-25.733	
128.700	-24.147	
128.800	-5.594	
128.900	-29.203	
129.000	-3.054	
129.100	-7.370	
129.200	-27.977	
129.300	6.340	
129.400	-28.755	
129.500	-18.473	
129.600	-10.146	
129.700	-26.307	
129.800	-22.561	
129.900	-11.878	
130.000	-11.744	
130.100	-2.889	
130.200	-18.341	
130.300	-16.065	
130.400	-19.045	
130.500	-10.612	
130.600	-1.844	
130.700	-36.967	
130.800	-35.385	
130.900	-26.579	
131.000	6.962	
131.100	-13.609	
131.200	5.774	
131.300	5.500	
131.400	-15.162	
131.500	-16.671	
131.600	-15.476	
131.700	-14.899	
131.800	-24.754	
131.900	-12.111	
132.000	5.532	
132.100	-1.599	
132.200	-10.616	
132.300	-5.614	
132.400	-17.186	
132.500	-14.754	
132.600	-33.311	
132.700	5.777	
132.800	-35.695	
132.900	5.841	
133.000	-30.629	
133.100	-7.604	
133.200	-5.267	
133.300	0.579	
133.400	-21.096	
133.500	-12.260	
133.600	-35.257	
133.700	-11.416	
133.800	-15.606	
133.900	-9.111	
134.000	-14.113	
134.100	-25.426	
134.200	-26.238	
134.300	-6.202	
134.400	-16.990	
134.500	-22.894	
134.600	7.357	
134.700	-8.997	
134.800	-17.072	
134.900	-17.398	
135.000	-29.587	
135.100	-1.204	
135.200	-2.695	
135.300	-27.555	
135.400	-21.417	
135.500	-6.100	
135.600	-12.035	
135.700	-17.713	
135.800	-5.384	
135.900	-33.600	
136.000	-1.082	
136.100	-18.064	
136.200	-12.389	
136.300	-13.501	
136.400	7.448	
136.500	-35.287	
136.600	-7.248	
136.700	-7.002	
136.800	-7.941	
136.900	-13.763	
137.000	-10.027	
137.100	8.674	
137.200	-22.102	
137.300	-29.674	
137.400	9.487	
137.500	-15.054	
137.600	-28.922	
137.700	-0.965	
137.800	-6.073	
137.900	-25.295	
138.000	-22.832	
138.100	-4.061	
138.200	-5.890	
138.300	-11.493	
138.400	-5.512	
138.500	-21.676	
138.600	-14.922	
138.700	-1.477	
138.800	-21.088	
138.900	-6.163	
139.000	-2.508	
139.100	-18.490	
139.200	3.646	
139.300	-28.713	
139.400	8.641	
139.500	-7.725	
139.600	-27.247	
139.700	-8.415	
139.800	-30.566	
139.900	9.613	
140.000	-23.347	
140.100	-23.536	
140.200	-3.309	
140.300	9.745	
140.400	-15.518	
140.500	-7.714	
140.600	-7.017	
140.700	-28.375	
140.800	-32.356	
140.900	-6.931	
141.000	-13.511	
141.100	-8.814	
141.200	-28.130	
141.300	6.951	
141.400	1.999	
141.500	-18.442	
141.600	-17.715	
141.700	0.185	
141.800	-21.669	
141.900	2.754	
142.000	-3.816	
142.100	-24.867	
142.200	-11.377	
142.300	-5.604	
142.400	0.836	
142.500	-18.483	
142.600	-33.113	
142.700	-14.696	
142.800	-22.765	
142.900	-22.588	
143.000	-12.533	
143.100	-8.205	
143.200	-15.955	
143.300	-11.037	
143.400	-2.382	
143.500	-22.881	
143.600	-12.718	
143.700	-21.795	
143.800	-3.244	
143.900	-12.183	
144.000	-14.681	
144.100	-14.953	
144.200	-9.196	
144.300	-8.438	
144.400	14.010	
144.500	-5.222	
144.600	-4.305	
144.700	-16.184	
144.800	-21.401	
144.900	-20.288	
145.000	-24.488	
145.100	-2.832	
145.200	-14.337	
145.300	-8.056	
145.400	-21.625	
145.500	-20.326	
145.600	7.168	
145.700	-35.216	
145.800	-18.247	
145.900	-1.559	
146.000	-11.321	
146.100	-34.034	
146.200	1.545	
146.300	-2.139	
146.400	-15.522	
146.500	-18.761	
146.600	-7.459	
146.700	2.510	
146.800	-14.521	
146.900	-6.642	
147.000	-2.901	
147.100	-10.028	
147.200	-26.987	
147.300	-19.451	
147.400	-1.747	
147.500	-8.474	
147.600	-0.764	
147.700	-17.253	
147.800	-14.137	
147.900	-11.116	
148.000	-12.856	
148.100	4.690	
148.200	-4.412	
148.300	-11.415	
148.400	-21.999	
148.500	7.318	
148.600	-14.382	
148.700	-15.565	
148.800	-17.569	
148.900	1.854	
149.000	-11.967	
149.100	-12.005	
149.200	-12.068	
149.300	-22.952	
149.400	-9.776	
149.500	2.940	
149.600	-25.319	
149.700	-7.857	
149.800	1.637	
149.900	-29.316	
150.000	-23.107	
150.100	-5.407	
150.200	5.734	
150.300	-35.751	
150.400	-3.585	
150.500	1.782	
150.600	0.012	
150.700	-10.884	
150.800	12.716	
150.900	-14.210	
151.000	-7.898	
151.100	-14.044	
151.200	-17.008	
151.300	11.315	
151.400	-4.470	
151.500	-0.283	
151.600	-22.418	
151.700	-22.909	
151.800	-22.349	
151.900	-1.676	
152.000	7.774	
152.100	-1.686	
152.200	-5.330	
152.300	-18.399	
152.400	-1.122	
152.500	0.109	
152.600	-18.039	
152.700	1.409	
152.800	-11.070	
152.900	-8.274	
153.000	-14.043	
153.100	-14.167	
153.200	-22.682	
153.300	-11.134	
153.400	-12.280	
153.500	-6.986	
153.600	-12.461	
153.700	2.696	
153.800	0.019	
153.900	-12.353	
154.000	-22.563	
154.100	-14.982	
154.200	-8.130	
154.300	-2.664	
154.400	-13.627	
154.500	-20.944	
154.600	-8.946	
154.700	-10.414	
154.800	-18.169	
154.900	-1.250	
155.000	-6.376	
155.100	6.650	
155.200	-8.128	
155.300	-21.922	
155.400	-9.307	
155.500	-2.768	
155.600	-1.597	
155.700	-22.521	
155.800	-5.547	
155.900	10.415	
156.000	-10.454	
156.100	-15.423	
156.200	-27.628	
156.300	-19.603	
156.400	-15.983	
156.500	-12.787	
156.600	-26.520	
156.700	2.406	
156.800	-16.333	
156.900	-3.873	
157.000	-30.153	
157.100	-0.573	
157.200	-3.911	
157.300	-13.807	
157.400	-5.566	
157.500	-25.977	
157.600	-12.297	
157.700	-23.976	
157.800	6.319	
157.900	-32.260	
158.000	-0.307	
158.100	-29.106	
158.200	1.914	
158.300	-16.839	
158.400	-36.829	
158.500	-1.874	
158.600	4.260	
158.700	-4.221	
158.800	-7.221	
158.900	-11.055	
159.000	-7.769	
159.100	-29.992	
159.200	-7.212	
159.300	13.533	
159.400	-33.986	
159.500	-8.365	
159.600	-22.677	
159.700	27.098	
159.800	-14.184	
159.900	-9.466	
160.000	-5.657	
160.100	-5.213	
160.200	2.558	
160.300	-16.796	
160.400	-26.266	
160.500	-20.051	
160.600	12.273	
160.700	-6.422	
160.800	-11.449	
160.900	-6.845	
161.000	0.368	
161.100	-23.011	
161.200	-9.262	
161.300	-3.570	
161.400	-28.423	
161.500	-15.052	
161.600	-23.355	
161.700	-8.547	
161.800	-11.384	
161.900	-7.609	
162.000	-33.188	
162.100	-1.690	
162.200	-8.573	
162.300	-5.409	
162.400	-7.138	
162.500	-28.000	
162.600	-9.951	
162.700	-15.422	
162.800	-9.267	
162.900	-11.907	
163.000	-17.125	
163.100	-1.480	
163.200	1.453	
163.300	-18.843	
163.400	-9.722	
163.500	-23.759	
163.600	-11.649	
163.700	-24.787	
163.800	-3.763	
163.900	2.899	
164.000	-1.051	
164.100	-10.077	
164.200	-24.631	
164.300	-26.993	
164.400	-9.913	
164.500	-4.336	
164.600	-0.108	
164.700	-6.210	
164.800	-1.693	
164.900	-0.425	
165.000	6.356	
165.100	-15.601	
165.200	-23.233	
165.300	-10.380	
165.400	13.038	
165.500	-38.535	
165.600	-15.539	
165.700	-18.673	
165.800	7.296	
165.900	-3.297	
166.000	-11.081	
166.100	-6.637	
166.200	-16.563	
166.300	-18.783	
166.400	-5.439	
166.500	-4.259	
166.600	0.422	
166.700	-6.650	
166.800	-4.301	
166.900	-15.829	
167.000	-17.121	
167.100	-23.438	
167.200	16.696	
167.300	-3.306	
167.400	-4.061	
167.500	-16.846	
167.600	-17.499	
167.700	-18.578	
167.800	-13.399	
167.900	-18.056	
168.000	-5.120	
168.100	-7.318	
168.200	5.766	
168.300	-9.663	
168.400	-32.163	
168.500	-14.905	
168.600	-1.682	
168.700	-13.794	
168.800	-5.691	
168.900	-19.485	
169.000	-4.532	
169.100	2.009	
169.200	-4.132	
169.300	-19.977	
169.400	-29.361	
169.500	2.160	
169.600	-13.154	
169.700	-7.564	
169.800	8.257	
169.900	-14.063	
170.000	-8.617	
170.100	-1.383	
170.200	-11.501	
170.300	-17.223	
170.400	-17.466	
170.500	-10.082	
170.600	-12.579	
170.700	-14.511	
170.800	-21.573	
170.900	-9.803	
171.000	3.044	
171.100	-20.481	
171.200	0.874	
171.300	-12.076	
171.400	-10.769	
171.500	-12.655	
171.600	0.228	
171.700	-3.610	
171.800	-12.658	
171.900	-13.909	
172.000	-11.903	
172.100	-9.108	
172.200	-13.809	
172.300	2.699	
172.400	-9.763	
172.500	-4.433	
172.600	-23.165	
172.700	-32.239	
172.800	-1.424	
172.900	5.432	
173.000	-18.719	
173.100	-22.152	
173.200	-13.482	
173.300	-15.241	
173.400	-14.259	
173.500	-1.813	
173.600	-18.915	
173.700	-3.763	
173.800	-25.090	
173.900	-10.677	
174.000	-5.669	
174.100	-6.029	
174.200	-3.023	
174.300	-1.598	
174.400	-34.657	
174.500	-15.521	
174.600	-5.899	
174.700	-16.690	
174.800	-2.402	
174.900	-27.179	
175.000	-0.211	
175.100	-1.560	
175.200	-21.203	
175.300	-8.619	
175.400	-9.674	
175.500	-26.916	
175.600	-15.442	
175.700	-19.099	
175.800	-18.887	
175.900	-19.759	
176.000	-17.211	
176.100	-16.907	
176.200	-7.237	
176.300	3.380	
176.400	-10.821	
176.500	15.341	
176.600	-5.902	
176.700	-18.506	
176.800	-2.226	
176.900	-18.293	
177.000	-24.309	
177.100	-8.140	
177.200	-22.582	
177.300	-20.462	
177.400	5.772	
177.500	-15.209	
177.600	1.846	
177.700	-16.216	
177.800	-2.044	
177.900	-2.306	
178.000	-13.071	
178.100	-9.831	
178.200	-19.120	
178.300	-2.593	
178.400	-10.545	
178.500	-6.098	
178.600	-16.587	
178.700	-20.166	
178.800	-19.488	
178.900	-12.485	
179.000	1.870	
179.100	-8.594	
179.200	-17.798	
179.300	-18.995	
179.400	-22.390	
179.500	3.148	
179.600	-15.329	
179.700	-8.887	
179.800	-25.890	
179.900	-9.839	
180.000	-4.657	
180.100	-0.459	
180.200	-13.741	
180.300	-8.340	
180.400	-3.536	
180.500	2.673	
180.600	11.469	
180.700	1.398	
180.800	-8.331	
180.900	-1.916	
181.000	11.874	
181.100	1.060	
181.200	3.837	
181.300	2.517	
181.400	2.862	
181.500	-2.096	
181.600	7.624	
181.700	-4.246	
181.800	16.982	
181.900	4.035	
182.000	8.899	
182.100	5.461	
182.200	5.582	
182.300	12.950	
182.400	11.809	
182.500	-5.282	
182.600	14.775	
182.700	2.934	
182.800	6.433	
182.900	-1.181	
183.000	9.441	
183.100	4.715	
183.200	8.155	
183.300	4.751	
183.400	16.370	
183.500	12.489	
183.600	1.874	
183.700	15.166	
183.800	9.677	
183.900	-2.783	
184.000	10.158	
184.100	8.424	
184.200	17.912	
184.300	-4.045	
184.400	-0.301	
184.500	14.431	
184.600	-1.459	
184.700	29.872	
184.800	12.378	
184.900	8.432	
185.000	16.678	
185.100	-7.546	
185.200	25.192	
185.300	1.658	
185.400	7.379	
185.500	14.893	
185.600	14.520	
185.700	-7.358	
185.800	9.583	
185.900	-4.893	
186.000	10.538	
186.100	26.391	
186.200	9.182	
186.300	21.034	
186.400	8.085	
186.500	22.902	
186.600	20.174	
186.700	4.025	
186.800	3.462	
186.900	11.054	
187.000	4.245	
187.100	3.361	
187.200	22.016	
187.300	24.154	
187.400	-22.375	
187.500	15.067	
187.600	5.109	
187.700	15.301	
187.800	21.929	
187.900	17.684	
188.000	4.583	
188.100	8.058	
188.200	10.287	
188.300	13.218	
188.400	4.488	
188.500	20.616	
188.600	6.855	
188.700	21.545	
188.800	20.015	
188.900	3.954	
189.000	1.914	
189.100	11.210	
189.200	12.104	
189.300	43.723	
189.400	0.652	
189.500	29.245	
189.600	18.236	
189.700	9.896	
189.800	35.573	
189.900	14.182	
190.000	22.476	
190.100	16.885	
190.200	21.547	
190.300	3.683	
190.400	24.502	
190.500	25.496	
190.600	21.050	
190.700	18.863	
190.800	8.140	
190.900	4.279	
191.000	15.652	
191.100	11.416	
191.200	24.004	
191.300	12.249	
191.400	17.018	
191.500	38.490	
191.600	34.379	
191.700	4.303	
191.800	21.144	
191.900	27.098	
192.000	17.818	
192.100	13.288	
192.200	35.849	
192.300	0.790	
192.400	26.325	
192.500	20.461	
192.600	24.811	
192.700	26.589	
192.800	-3.438	
192.900	21.210	
193.000	33.064	
193.100	11.718	
193.200	39.490	
193.300	32.201	
193.400	39.427	
193.500	20.913	
193.600	24.580	
193.700	25.899	
193.800	26.332	
193.900	19.535	
194.000	28.445	
194.100	39.961	
194.200	31.338	
194.300	26.929	
194.400	18.956	
194.500	32.042	
194.600	26.745	
194.700	23.312	
194.800	36.887	
194.900	23.588	
195.000	10.064	
195.100	24.409	
195.200	31.663	
195.300	11.626	
195.400	25.587	
195.500	30.779	
195.600	39.746	
195.700	33.332	
195.800	13.673	
195.900	31.732	
196.000	21.297	
196.100	42.951	
196.200	25.367	
196.300	25.018	
196.400	23.357	
196.500	34.158	
196.600	44.256	
196.700	35.147	
196.800	32.820	
196.900	6.040	
197.000	26.323	
197.100	31.481	
197.200	44.216	
197.300	25.012	
197.400	30.963	
197.500	31.389	
197.600	51.633	
197.700	35.856	
197.800	35.361	
197.900	21.966	
198.000	4.831	
198.100	42.238	
198.200	45.050	
198.300	40.585	
198.400	21.872	
198.500	2.771	
198.600	30.575	
198.700	38.422	
198.800	27.355	
198.900	33.272	
199.000	37.306	
199.100	44.836	
199.200	30.655	
199.300	29.296	
199.400	42.687	
199.500	21.747	
199.600	34.511	
199.700	33.289	
199.800	34.728	
199.900	24.080	
200.000	34.715	
200.100	33.194	
200.200	38.467	
200.300	33.327	
200.400	32.054	
200.500	22.034	
200.600	33.636	
200.700	35.630	
200.800	35.564	
200.900	26.131	
201.000	42.889	
201.100	23.002	
201.200	38.146	
201.300	26.384	
201.400	39.168	
201.500	37.660	
201.600	37.135	
201.700	40.376	
201.800	10.455	
201.900	26.299	
202.000	47.875	
202.100	24.233	
202.200	37.287	
202.300	25.671	
202.400	30.149	
202.500	20.631	
202.600	34.605	
202.700	46.058	
202.800	21.109	
202.900	35.475	
203.000	40.557	
203.100	54.060	
203.200	23.151	
203.300	23.751	
203.400	38.224	
203.500	31.686	
203.600	49.245	
203.700	54.558	
203.800	14.924	
203.900	36.317	
204.000	30.095	
204.100	43.304	
204.200	37.979	
204.300	27.113	
204.400	26.800	
204.500	32.378	
204.600	42.460	
204.700	44.244	
204.800	30.234	
204.900	23.130	
205.000	33.663	
205.100	40.453	
205.200	59.342	
205.300	29.420	
205.400	41.444	
205.500	38.049	
205.600	36.592	
205.700	31.782	
205.800	37.552	
205.900	25.962	
206.000	37.890	
206.100	33.319	
206.200	51.408	
206.300	40.459	
206.400	56.128	
206.500	26.805	
206.600	46.461	
206.700	28.591	
206.800	34.830	
206.900	32.495	
207.000	37.659	
207.100	34.505	
207.200	40.250	
207.300	40.922	
207.400	24.772	
207.500	30.127	
207.600	41.203	
207.700	52.843	
207.800	31.883	
207.900	34.354	
208.000	53.327	
208.100	15.253	
208.200	29.226	
208.300	50.723	
208.400	34.421	
208.500	41.309	
208.600	22.439	
208.700	29.304	
208.800	48.620	
208.900	29.973	
209.000	39.310	
209.100	32.112	
209.200	34.183	
209.300	41.034	
209.400	24.628	
209.500	40.864	
209.600	43.032	
209.700	23.978	
209.800	55.427	
209.900	32.978	
210.000	39.741	
210.100	21.445	
210.200	43.259	
210.300	35.821	
210.400	12.422	
210.500	24.222	
210.600	50.751	
210.700	54.817	
210.800	35.739	
210.900	37.056	
211.000	35.809	
211.100	34.039	
211.200	22.240	
211.300	39.011	
211.400	27.530	
211.500	51.049	
211.600	50.213	
211.700	27.100	
211.800	30.024	
211.900	29.742	
212.000	48.077	
212.100	30.421	
212.200	55.967	
212.300	36.491	
212.400	36.372	
212.500	34.163	
212.600	37.373	
212.700	9.363	
212.800	26.198	
212.900	49.549	
213.000	22.928	
213.100	38.896	
213.200	44.198	
213.300	46.096	
213.400	43.924	
213.500	28.592	
213.600	51.598	
213.700	18.635	
213.800	62.879	
213.900	49.242	
214.000	31.502	
214.100	26.239	
214.200	45.581	
214.300	28.019	
214.400	59.090	
214.500	33.168	
214.600	27.063	
214.700	35.884	
214.800	25.259	
214.900	36.016	
215.000	39.515	
215.100	48.570	
215.200	28.301	
215.300	44.699	
215.400	46.109	
215.500	36.973	
215.600	31.302	
215.700	37.992	
215.800	49.268	
215.900	41.390	
216.000	22.685	
216.100	34.020	
216.200	34.785	
216.300	48.212	
216.400	26.256	
216.500	32.099	
216.600	27.511	
216.700	52.536	
216.800	37.298	
216.900	44.201	
217.000	25.487	
217.100	39.367	
217.200	40.691	
217.300	29.281	
217.400	45.892	
217.500	42.375	
217.600	12.102	
217.700	37.972	
217.800	32.000	
217.900	52.808	
218.000	35.248	
218.100	31.128	
218.200	48.416	
218.300	35.642	
218.400	31.519	
218.500	31.092	
218.600	33.740	
218.700	46.790	
218.800	34.433	
218.900	25.892	
219.000	16.392	
219.100	9.501	
219.200	38.513	
219.300	35.456	
219.400	37.946	
219.500	30.605	
219.600	41.411	
219.700	37.118	
219.800	34.044	
219.900	32.413	
220.000	44.249	
220.100	56.911	
220.200	38.065	
220.300	29.018	
220.400	29.594	
220.500	37.272	
220.600	28.958	
220.700	33.578	
220.800	40.605	
220.900	46.243	
221.000	39.090	
221.100	39.495	
221.200	39.658	
221.300	64.921	
221.400	31.419	
221.500	37.287	
221.600	27.933	
221.700	43.584	
221.800	42.326	
221.900	42.263	
222.000	54.756	
222.100	27.242	
222.200	28.120	
222.300	37.254	
222.400	28.915	
222.500	40.467	
222.600	24.949	
222.700	25.728	
222.800	30.724	
222.900	51.216	
223.000	26.530	
223.100	34.661	
223.200	61.096	
223.300	26.521	
223.400	39.428	
223.500	30.766	
223.600	30.082	
223.700	37.052	
223.800	16.343	
223.900	30.092	
224.000	28.014	
224.100	50.877	
224.200	43.542	
224.300	41.129	
224.400	41.247	
224.500	27.285	
224.600	36.410	
224.700	37.562	
224.800	41.060	
224.900	43.820	
225.000	46.675	
225.100	48.537	
225.200	47.907	
225.300	32.084	
225.400	33.166	
225.500	25.090	
225.600	39.478	
225.700	32.705	
225.800	31.235	
225.900	30.562	
226.000	32.170	
226.100	29.911	
226.200	49.656	
226.300	43.925	
226.400	39.831	
226.500	47.844	
226.600	12.282	
226.700	32.370	
226.800	20.635	
226.900	36.892	
227.000	56.348	
227.100	26.020	
227.200	33.544	
227.300	26.873	
227.400	21.021	
227.500	51.516	
227.600	33.887	
227.700	43.108	
227.800	44.551	
227.900	12.609	
228.000	15.126	
228.100	37.986	
228.200	41.874	
228.300	53.619	
228.400	42.338	
228.500	31.437	
228.600	55.843	
228.700	37.301	
228.800	19.825	
228.900	27.059	
229.000	56.197	
229.100	52.152	
229.200	15.592	
229.300	22.521	
229.400	11.907	
229.500	52.447	
229.600	52.840	
229.700	31.084	
229.800	37.431	
229.900	45.753	
230.000	48.979	
230.100	30.363	
230.200	23.539	
230.300	27.693	
230.400	27.718	
230.500	40.194	
230.600	30.688	
230.700	40.428	
230.800	53.761	
230.900	40.466	
231.000	56.527	
231.100	52.047	
231.200	35.746	
231.300	38.917	
231.400	32.780	
231.500	33.819	
231.600	30.391	
231.700	35.355	
231.800	36.106	
231.900	41.795	
232.000	38.349	
232.100	20.653	
232.200	25.496	
232.300	32.207	
232.400	40.557	
232.500	29.946	
232.600	33.609	
232.700	24.142	
232.800	56.771	
232.900	20.562	
233.000	38.857	
233.100	33.339	
233.200	39.239	
233.300	36.348	
233.400	45.732	
233.500	26.236	
233.600	25.449	
233.700	18.649	
233.800	18.077	
233.900	67.803	
234.000	45.291	
234.100	19.436	
234.200	23.040	
234.300	55.987	
234.400	45.547	
234.500	39.760	
234.600	35.049	
234.700	39.111	
234.800	28.127	
234.900	31.560	
235.000	45.349	
235.100	44.655	
235.200	54.442	
235.300	40.360	
235.400	40.272	
235.500	35.594	
235.600	25.485	
235.700	42.855	
235.800	33.534	
235.900	25.369	
236.000	38.825	
236.100	35.374	
236.200	28.696	
236.300	29.249	
236.400	39.959	
236.500	28.858	
236.600	47.841	
236.700	46.451	
236.800	47.967	
236.900	5.178	
237.000	32.388	
237.100	41.315	
237.200	29.401	
237.300	40.354	
237.400	19.400	
237.500	31.163	
237.600	34.132	
237.700	42.362	
237.800	11.942	
237.900	26.133	
238.000	40.705	
238.100	58.234	
238.200	24.467	
238.300	54.452	
238.400	31.760	
238.500	41.746	
238.600	48.317	
238.700	33.927	
238.800	22.130	
238.900	40.808	
239.000	41.686	
239.100	36.875	
239.200	38.187	
239.300	29.601	
239.400	16.706	
239.500	38.330	
239.600	44.980	
239.700	27.452	
239.800	44.540	
239.900	44.674	
240.000	19.430	
240.100	20.693	
240.200	54.540	
240.300	25.930	
240.400	37.374	
240.500	25.836	
240.600	29.840	
240.700	27.435	
240.800	34.160	
240.900	33.279	
241.000	25.800	
241.100	28.690	
241.200	17.795	
241.300	11.814	
241.400	30.765	
241.500	11.242	
241.600	39.472	
241.700	24.504	
241.800	0.286	
241.900	18.522	
242.000	24.356	
242.100	17.659	
242.200	14.973	
242.300	28.233	
242.400	18.075	
242.500	11.474	
242.600	24.983	
242.700	20.608	
242.800	7.090	
242.900	20.207	
243.000	6.464	
243.100	25.288	
243.200	16.128	
243.300	-2.573	
243.400	16.334	
243.500	2.587	
243.600	28.730	
243.700	22.445	
243.800	31.326	
243.900	13.560	
244.000	13.819	
244.100	10.015	
244.200	2.792	
244.300	13.564	
244.400	23.229	
244.500	0.260	
244.600	11.767	
244.700	1.348	
244.800	11.017	
244.900	17.667	
245.000	5.627	
245.100	8.367	
245.200	7.442	
245.300	0.640	
245.400	-2.707	
245.500	7.136	
245.600	10.147	
245.700	14.212	
245.800	-5.711	
245.900	5.025	
246.000	1.539	
246.100	-4.585	
246.200	2.696	
246.300	21.027	
246.400	24.991	
246.500	2.187	
246.600	1.087	
246.700	2.694	
246.800	11.267	
246.900	-12.654	
247.000	-1.745	
247.100	-6.313	
247.200	1.945	
247.300	15.127	
247.400	-2.244	
247.500	0.216	
247.600	7.866	
247.700	-8.530	
247.800	14.900	
247.900	4.009	
248.000	-0.742	
248.100	5.619	
248.200	8.652	
248.300	6.847	
248.400	-4.694	
248.500	9.349	
248.600	8.851	
248.700	2.190	
248.800	14.926	
248.900	-16.303	
249.000	12.599	
249.100	9.044	
249.200	-1.295	
249.300	6.238	
249.400	7.063	
249.500	-28.529	
249.600	9.848	
249.700	7.940	
249.800	-25.346	
249.900	-14.483	
250.000	0.562	
250.100	-12.670	
250.200	-3.979	
250.300	3.679	
250.400	-17.495	
250.500	-10.083	
250.600	10.040	
250.700	-4.371	
250.800	-14.015	
250.900	11.902	
251.000	-3.168	
251.100	-19.462	
251.200	11.335	
251.300	22.202	
251.400	-13.163	
251.500	-5.663	
251.600	-2.659	
251.700	-1.393	
251.800	-10.941	
251.900	-19.395	
252.000	-5.041	
252.100	-1.744	
252.200	6.062	
252.300	-5.926	
252.400	1.893	
252.500	3.825	
252.600	2.271	
252.700	-15.073	
252.800	-9.173	
252.900	3.449	
253.000	4.853	
253.100	-8.781	
253.200	-3.533	
253.300	-26.851	
253.400	-6.978	
253.500	-12.325	
253.600	-3.025	
253.700	-10.993	
253.800	-19.812	
253.900	-18.825	
254.000	28.132	
254.100	-21.552	
254.200	0.767	
254.300	-10.476	
254.400	-16.574	
254.500	2.204	
254.600	-9.826	
254.700	-4.239	
254.800	6.655	
254.900	1.441	
255.000	-3.655	
255.100	-18.960	
255.200	-21.366	
255.300	-17.290	
255.400	-3.734	
255.500	-1.302	
255.600	-8.609	
255.700	-8.232	
255.800	-10.848	
255.900	-7.873	
256.000	-12.447	
256.100	-11.246	
256.200	-18.259	
256.300	-6.680	
256.400	-3.757	
256.500	-7.049	
256.600	-11.401	
256.700	-29.199	
256.800	-20.164	
256.900	-14.033	
257.000	-13.329	
257.100	-6.524	
257.200	-16.984	
257.300	-15.541	
257.400	3.954	
257.500	-1.796	
257.600	6.539	
257.700	-7.605	
257.800	-20.449	
257.900	-23.243	
258.000	-38.743	
258.100	-2.113	
258.200	-6.491	
258.300	-5.663	
258.400	-10.548	
258.500	-19.813	
258.600	-32.861	
258.700	-5.204	
258.800	7.519	
258.900	-25.178	
259.000	-18.803	
259.100	12.649	
259.200	-4.697	
259.300	-24.260	
259.400	-24.250	
259.500	-27.244	
259.600	-11.388	
259.700	0.527	
259.800	3.812	
259.900	-10.526	
260.000	5.778	
260.100	-29.518	
260.200	-20.065	
260.300	-25.478	
260.400	-25.282	
260.500	18.211	
260.600	-8.035	
260.700	-19.592	
260.800	-24.780	
260.900	-23.192	
261.000	-2.397	
261.100	1.974	
261.200	-16.263	
261.300	-11.708	
261.400	-25.036	
261.500	-17.557	
261.600	-4.098	
261.700	10.807	
261.800	-43.603	
261.900	-15.223	
262.000	-6.017	
262.100	-30.020	
262.200	-11.144	
262.300	-15.460	
262.400	-7.430	
262.500	-22.685	
262.600	-6.917	
262.700	-17.316	
262.800	-22.486	
262.900	-23.393	
263.000	-10.938	
263.100	-35.588	
263.200	3.783	
263.300	-5.441	
263.400	-10.992	
263.500	-32.994	
263.600	-4.970	
263.700	-1.588	
263.800	-19.356	
263.900	-0.727	
264.000	-15.508	
264.100	-7.009	
264.200	-40.581	
264.300	-12.378	
264.400	-26.000	
264.500	-26.256	
264.600	-1.191	
264.700	-23.782	
264.800	-20.358	
264.900	-18.880	
265.000	-16.227	
265.100	-19.362	
265.200	-13.972	
265.300	-17.151	
265.400	-27.109	
265.500	-14.624	
265.600	-0.780	
265.700	-8.261	
265.800	-23.997	
265.900	-29.869	
266.000	-13.119	
266.100	-23.059	
266.200	-15.245	
266.300	1.042	
266.400	-24.360	
266.500	-41.848	
266.600	-12.029	
266.700	-33.201	
266.800	-9.086	
266.900	-6.836	
267.000	-20.888	
267.100	-27.697	
267.200	-7.194	
267.300	-15.172	
267.400	-25.676	
267.500	-6.847	
267.600	-13.471	
267.700	-28.266	
267.800	4.543	
267.900	-5.276	
268.000	-9.265	
268.100	-2.152	
268.200	-20.012	
268.300	-38.471	
268.400	-22.825	
268.500	-2.995	
268.600	-20.480	
268.700	-21.811	
268.800	-21.408	
268.900	-18.334	
269.000	-11.179	
269.100	-5.252	
269.200	-17.119	
269.300	-31.505	
269.400	-14.432	
269.500	-25.515	
269.600	-28.027	
269.700	7.514	
269.800	-9.119	
269.900	-26.847	
270.000	-37.861	
270.100	-8.777	
270.200	-10.893	
270.300	-20.423	
270.400	-1.845	
270.500	-50.431	
270.600	-16.309	
270.700	-33.412	
270.800	-4.185	
270.900	-15.815	
271.000	-14.795	
271.100	-16.651	
271.200	-39.635	
271.300	-14.920	
271.400	-20.159	
271.500	-10.568	
271.600	-15.462	
271.700	-6.370	
271.800	-23.079	
271.900	-14.765	
272.000	-16.786	
272.100	-6.529	
272.200	-22.726	
272.300	-45.614	
272.400	-19.693	
272.500	-8.614	
272.600	-1.430	
272.700	-16.957	
272.800	-8.718	
272.900	-21.928	
273.000	-22.836	
273.100	-10.809	
273.200	-4.157	
273.300	-19.016	
273.400	-17.306	
273.500	-23.835	
273.600	-26.172	
273.700	-10.512	
273.800	-2.726	
273.900	-19.360	
274.000	-39.178	
274.100	-24.048	
274.200	-2.919	
274.300	12.590	
274.400	-7.325	
274.500	-17.341	
274.600	-15.161	
274.700	-23.645	
274.800	-17.365	
274.900	-2.245	
275.000	-8.294	
275.100	-18.427	
275.200	-26.808	
275.300	-20.500	
275.400	-15.989	
275.500	-25.354	
275.600	-14.987	
275.700	-28.591	
275.800	-10.945	
275.900	-12.153	
276.000	-24.817	
276.100	-1.730	
276.200	-25.878	
276.300	1.748	
276.400	-15.451	
276.500	-10.619	
276.600	4.480	
276.700	-37.598	
276.800	-22.182	
276.900	-9.253	
277.000	-2.305	
277.100	-21.586	
277.200	1.507	
277.300	-14.603	
277.400	-32.430	
277.500	-25.824	
277.600	-26.199	
277.700	-20.041	
277.800	-3.627	
277.900	-12.297	
278.000	-14.692	
278.100	-22.127	
278.200	-26.615	
278.300	-7.900	
278.400	-10.087	
278.500	-13.069	
278.600	-22.984	
278.700	-19.814	
278.800	-33.931	
278.900	3.535	
279.000	-9.264	
279.100	-20.961	
279.200	-28.563	
279.300	-26.587	
279.400	-18.983	
279.500	-10.743	
279.600	-2.398	
279.700	-13.611	
279.800	-24.292	
279.900	-20.531	
280.000	-12.412	
280.100	12.989	
280.200	-17.875	
280.300	-22.029	
280.400	-14.254	
280.500	-18.118	
280.600	-18.034	
280.700	-28.892	
280.800	-17.190	
280.900	-20.658	
281.000	-11.373	
281.100	-14.280	
281.200	-18.559	
281.300	-21.975	
281.400	-11.720	
281.500	-27.439	
281.600	-18.914	
281.700	-8.770	
281.800	-13.123	
281.900	-15.640	
282.000	-17.813	
282.100	-14.300	
282.200	-1.065	
282.300	-24.802	
282.400	-0.630	
282.500	-23.208	
282.600	-17.851	
282.700	-14.467	
282.800	-21.291	
282.900	-17.607	
283.000	-13.316	
283.100	-18.073	
283.200	-21.971	
283.300	-35.239	
283.400	-5.515	
283.500	-22.537	
283.600	2.075	
283.700	-15.434	
283.800	-38.544	
283.900	-25.853	
284.000	-17.424	
284.100	-10.145	
284.200	-12.760	
284.300	-5.007	
284.400	-21.451	
284.500	-22.291	
284.600	-8.050	
284.700	-27.404	
284.800	-10.704	
284.900	-3.082	
285.000	-22.853	
285.100	-19.654	
285.200	-29.936	
285.300	-13.486	
285.400	-15.508	
285.500	-10.235	
285.600	-25.400	
285.700	-9.449	
285.800	3.988	
285.900	-19.380	
286.000	-34.627	
286.100	-1.099	
286.200	-26.061	
286.300	-14.256	
286.400	5.344	
286.500	1.733	
286.600	-19.867	
286.700	-19.048	
286.800	-30.329	
286.900	-14.355	
287.000	-25.975	
287.100	-12.002	
287.200	0.110	
287.300	-26.105	
287.400	-38.388	
287.500	3.647	
287.600	-28.751	
287.700	-16.458	
287.800	0.407	
287.900	-10.409	
288.000	-13.810	
288.100	-18.175	
288.200	5.081	
288.300	-21.474	
288.400	-15.072	
288.500	-19.324	
288.600	-26.875	
288.700	-3.488	
288.800	-1.965	
288.900	-37.744	
289.000	-10.199	
289.100	-18.284	
289.200	-11.584	
289.300	-10.504	
289.400	-15.383	
289.500	-22.089	
289.600	-20.175	
289.700	-14.856	
289.800	-21.076	
289.900	-13.506	
290.000	-11.718	
290.100	-11.566	
290.200	-1.651	
290.300	-15.716	
290.400	-18.263	
290.500	-25.837	
290.600	2.539	
290.700	-11.390	
290.800	-8.819	
290.900	-27.977	
291.000	-43.360	
291.100	-11.958	
291.200	-23.935	
291.300	-7.559	
291.400	4.661	
291.500	-20.084	
291.600	-25.449	
291.700	15.414	
291.800	-30.022	
291.900	-34.191	
292.000	-4.870	
292.100	7.969	
292.200	-8.152	
292.300	7.685	
292.400	-9.093	
292.500	-21.824	
292.600	-28.384	
292.700	-6.812	
292.800	0.291	
292.900	-15.322	
293.000	-9.058	
293.100	-14.210	
293.200	-27.213	
293.300	1.183	
293.400	-12.584	
293.500	-5.838	
293.600	-17.229	
293.700	-29.990	
293.800	-20.109	
293.900	-14.524	
294.000	-2.348	
294.100	-23.608	
294.200	6.340	
294.300	-25.403	
294.400	-15.629	
294.500	-19.685	
294.600	-23.936	
294.700	-3.416	
294.800	-21.627	
294.900	-41.404	
295.000	-15.644	
295.100	-6.211	
295.200	-0.324	
295.300	-23.547	
295.400	-28.209	
295.500	-24.808	
295.600	6.116	
295.700	5.351	
295.800	-7.546	
295.900	-6.481	
296.000	-24.783	
296.100	-19.650	
296.200	-13.511	
296.300	-2.790	
296.400	-18.798	
296.500	-19.672	
296.600	-17.202	
296.700	-7.091	
296.800	-2.414	
296.900	-19.626	
297.000	-16.498	
297.100	-12.829	
297.200	-6.254	
297.300	-10.825	
297.400	-14.803	
297.500	-13.488	
297.600	-15.149	
297.700	-33.343	
297.800	-2.366	
297.900	-13.876	
298.000	-13.313	
298.100	-15.178	
298.200	-9.804	
298.300	-24.483	
298.400	-24.403	
298.500	-20.951	
298.600	-6.284	
298.700	-25.954	
298.800	-18.357	
298.900	-50.185	
299.000	0.272	
299.100	7.803	
299.200	-8.363	
299.300	-11.470	
299.400	-14.025	
299.500	-17.145	
299.600	3.382	
299.700	-12.459	
299.800	-6.035	
299.900	-10.850	
300.000	-38.901	
300.100	-17.901	
300.200	-10.256	
300.300	-6.175	
300.400	-6.967	
300.500	-2.723	
300.600	-8.030	
300.700	-36.108	
300.800	-10.920	
300.900	-36.281	
301.000	-6.291	
301.100	-3.984	
301.200	3.616	
301.300	-6.196	
301.400	-16.319	
301.500	-10.188	
301.600	-19.657	
301.700	-11.521	
301.800	-28.037	
301.900	-16.906	
302.000	-5.672	
302.100	-14.109	
302.200	-4.265	
302.300	-41.296	
302.400	-6.239	
302.500	3.985	
302.600	-10.059	
302.700	-15.670	
302.800	-9.176	
302.900	-45.166	
303.000	-18.740	
303.100	-10.373	
303.200	5.717	
303.300	2.866	
303.400	-18.500	
303.500	-2.432	
303.600	-10.439	
303.700	-11.229	
303.800	-5.208	
303.900	-35.160	
304.000	-0.864	
304.100	-31.928	
304.200	-29.333	
304.300	-0.483	
304.400	10.520	
304.500	-12.729	
304.600	-9.981	
304.700	-27.061	
304.800	-19.011	
304.900	-3.890	
305.000	-13.368	
305.100	4.217	
305.200	-35.698	
305.300	-20.429	
305.400	2.466	
305.500	-14.007	
305.600	-20.740	
305.700	-22.826	
305.800	-12.432	
305.900	-15.427	
306.000	-12.554	
306.100	-4.961	
306.200	2.260	
306.300	-12.763	
306.400	-35.424	
306.500	-4.334	
306.600	-9.082	
306.700	-7.654	
306.800	-25.051	
306.900	-25.041	
307.000	-0.236	
307.100	-22.953	
307.200	-22.200	
307.300	11.171	
307.400	-16.975	
307.500	-19.514	
307.600	-18.178	
307.700	-2.632	
307.800	-3.779	
307.900	1.458	
308.000	-19.891	
308.100	-11.073	
308.200	-23.599	
308.300	-5.819	
308.400	-9.822	
308.500	-14.364	
308.600	-5.185	
308.700	-18.025	
308.800	-22.334	
308.900	-8.869	
309.000	-7.279	
309.100	-13.876	
309.200	-15.035	
309.300	-11.586	
309.400	-11.754	
309.500	-16.323	
309.600	-25.802	
309.700	-3.337	
309.800	-28.992	
309.900	-5.149	
310.000	-24.103	
310.100	-8.326	
310.200	9.857	
310.300	-17.514	
310.400	-4.396	
310.500	-10.976	
310.600	-6.987	
310.700	-28.327	
310.800	-2.452	
310.900	13.054	
311.000	-26.838	
311.100	-21.505	
311.200	-2.851	
311.300	9.685	
311.400	3.980	
311.500	-13.753	
311.600	-13.516	
311.700	-11.790	
311.800	-9.800	
311.900	-13.075	
312.000	-1.678	
312.100	-7.681	
312.200	-23.157	
312.300	-14.352	
312.400	4.966	
312.500	7.468	
312.600	-3.524	
312.700	-24.900	
312.800	-27.284	
312.900	-20.459	
313.000	-6.058	
313.100	8.644	
313.200	-5.902	
313.300	-30.506	
313.400	-12.822	
313.500	-18.695	
313.600	3.628	
313.700	-10.975	
313.800	-11.309	
313.900	-7.568	
314.000	-26.026	
314.100	-15.161	
314.200	-1.403	
314.300	6.686	
314.400	-10.980	
314.500	7.603	
314.600	-13.401	
314.700	-13.009	
314.800	-6.204	
314.900	-2.967	
315.000	-8.372	
315.100	-8.932	
315.200	-11.019	
315.300	-3.046	
315.400	-19.250	
315.500	-10.625	
315.600	-21.567	
315.700	-12.511	
315.800	-0.996	
315.900	-17.012	
316.000	-6.150	
316.100	-15.941	
316.200	-34.158	
316.300	6.270	
316.400	-32.335	
316.500	-7.975	
316.600	-7.216	
316.700	-16.715	
316.800	-29.355	
316.900	-16.730	
317.000	-7.229	
317.100	-11.690	
317.200	-7.656	
317.300	-10.062	
317.400	-11.959	
317.500	-26.240	
317.600	-15.890	
317.700	-7.244	
317.800	-1.037	
317.900	-18.112	
318.000	-16.469	
318.100	-11.246	
318.200	-12.095	
318.300	1.982	
318.400	-22.611	
318.500	-14.572	
318.600	-31.471	
318.700	-33.402	
318.800	15.832	
318.900	-11.763	
319.000	-11.125	
319.100	-20.455	
319.200	-15.877	
319.300	-4.586	
319.400	-4.882	
319.500	-11.616	
319.600	-11.004	
319.700	-24.098	
319.800	-23.313	
319.900	-1.141	
320.000	-5.004	
320.100	-24.259	
320.200	-8.059	
320.300	-16.156	
320.400	-9.603	
320.500	-3.817	
320.600	-28.820	
320.700	-28.143	
320.800	8.982	
320.900	-24.105	
321.000	-24.348	
321.100	-5.987	
321.200	-27.133	
321.300	-6.995	
321.400	-1.972	
321.500	-7.961	
321.600	-14.437	
321.700	-0.656	
321.800	-21.610	
321.900	-21.024	
322.000	-26.448	
322.100	11.596	
322.200	-0.187	
322.300	-6.231	
322.400	-1.625	
322.500	-22.096	
322.600	-7.146	
322.700	-14.392	
322.800	-16.484	
322.900	-16.780	
323.000	-2.129	
323.100	-29.066	
323.200	-19.958	
323.300	-27.307	
323.400	-13.997	
323.500	-6.414	
323.600	-25.546	
323.700	-12.654	
323.800	-25.023	
323.900	-20.155	
324.000	-22.513	
324.100	1.633	
324.200	-19.614	
324.300	-2.410	
324.400	4.072	
324.500	-9.651	
324.600	-4.157	
324.700	2.174	
324.800	0.144	
324.900	-17.774	
325.000	-28.906	
325.100	-14.353	
325.200	-14.516	
325.300	-20.317	
325.400	-23.558	
325.500	-20.139	
325.600	-14.865	
325.700	-6.984	
325.800	-7.140	
325.900	-29.994	
326.000	-11.636	
326.100	-5.655	
326.200	-17.648	
326.300	-15.497	
326.400	3.028	
326.500	-15.389	
326.600	-14.336	
326.700	-9.403	
326.800	-8.405	
326.900	-11.045	
327.000	-3.288	
327.100	-12.090	
327.200	-12.148	
327.300	-16.922	
327.400	-8.852	
327.500	-23.128	
327.600	-10.971	
327.700	-18.273	
327.800	-11.219	
327.900	-31.563	
328.000	-7.826	
328.100	-7.364	
328.200	-12.592	
328.300	-22.118	
328.400	-13.544	
328.500	-15.697	
328.600	-6.966	
328.700	-2.824	
328.800	-4.132	
328.900	-26.274	
329.000	-17.184	
329.100	6.944	
329.200	-8.766	
329.300	-3.604	
329.400	-13.659	
329.500	-11.297	
329.600	-31.245	
329.700	-8.166	
329.800	-9.156	
329.900	-12.139	
330.000	-13.948	
330.100	-23.910	
330.200	-4.376	
330.300	14.042	
330.400	-5.178	
330.500	-1.223	
330.600	7.856	
330.700	-17.758	
330.800	1.221	
330.900	9.555	
331.000	5.160	
331.100	-6.346	
331.200	-18.016	
331.300	-5.951	
331.400	10.272	
331.500	-7.861	
331.600	11.606	
331.700	-10.433	
331.800	6.171	
331.900	16.038	
332.000	-2.680	
332.100	4.657	
332.200	21.633	
332.300	-1.478	
332.400	4.042	
332.500	5.327	
332.600	6.483	
332.700	21.437	
332.800	2.807	
332.900	4.802	
333.000	-10.285	
333.100	17.922	
333.200	13.341	
333.300	-6.362	
333.400	6.102	
333.500	2.451	
333.600	-17.297	
333.700	16.251	
333.800	20.825	
333.900	-10.427	
334.000	19.123	
334.100	0.913	
334.200	4.679	
334.300	-0.129	
334.400	8.555	
334.500	22.366	
334.600	-0.829	
334.700	2.538	
334.800	7.157	
334.900	1.693	
335.000	8.182	
335.100	3.463	
335.200	16.514	
335.300	-3.139	
335.400	5.041	
335.500	14.635	
335.600	20.910	
335.700	2.042	
335.800	1.959	
335.900	18.352	
336.000	5.047	
336.100	13.461	
336.200	8.986	
336.300	11.047	
336.400	7.384	
336.500	8.209	
336.600	10.729	
336.700	17.946	
336.800	6.932	
336.900	13.058	
337.000	-2.682	
337.100	5.435	
337.200	10.104	
337.300	32.182	
337.400	3.476	
337.500	-7.359	
337.600	13.083	
337.700	9.307	
337.800	8.452	
337.900	27.960	
338.000	-0.952	
338.100	23.707	
338.200	-14.746	
338.300	0.220	
338.400	10.051	
338.500	29.961	
338.600	22.386	
338.700	15.654	
338.800	2.010	
338.900	15.014	
339.000	0.849	
339.100	9.329	
339.200	4.196	
339.300	16.125	
339.400	-14.634	
339.500	20.170	
339.600	11.472	
339.700	13.540	
339.800	14.488	
339.900	-2.378	
340.000	2.386	
340.100	33.488	
340.200	23.806	
340.300	29.163	
340.400	23.465	
340.500	-16.117	
340.600	22.787	
340.700	19.714	
340.800	15.171	
340.900	14.154	
341.000	22.559	
341.100	-3.907	
341.200	12.461	
341.300	21.431	
341.400	29.469	
341.500	21.289	
341.600	9.334	
341.700	14.125	
341.800	29.184	
341.900	10.939	
342.000	35.900	
342.100	33.449	
342.200	5.904	
342.300	15.139	
342.400	8.821	
342.500	35.842	
342.600	22.055	
342.700	-5.074	
342.800	13.301	
342.900	11.816	
343.000	40.232	
343.100	17.876	
343.200	26.355	
343.300	11.412	
343.400	17.482	
343.500	1.897	
343.600	31.324	
343.700	32.689	
343.800	27.776	
343.900	11.110	
344.000	17.125	
344.100	5.939	
344.200	16.960	
344.300	35.769	
344.400	21.665	
344.500	20.296	
344.600	24.891	
344.700	4.770	
344.800	16.207	
344.900	26.790	
345.000	34.900	
345.100	11.576	
345.200	22.283	
345.300	30.480	
345.400	32.539	
345.500	31.428	
345.600	32.614	
345.700	12.059	
345.800	8.528	
345.900	13.536	
346.000	44.158	
346.100	48.964	
346.200	41.507	
346.300	9.907	
346.400	25.662	
346.500	32.946	
346.600	34.690	
346.700	18.377	
346.800	30.366	
346.900	29.121	
347.000	42.264	
347.100	38.652	
347.200	30.247	
347.300	46.211	
347.400	34.653	
347.500	31.278	
347.600	38.194	
347.700	21.148	
347.800	38.434	
347.900	34.832	
348.000	21.493	
348.100	25.853	
348.200	35.634	
348.300	38.305	
348.400	42.300	
348.500	37.925	
348.600	36.978	
348.700	20.570	
348.800	40.225	
348.900	35.751	
349.000	46.187	
349.100	23.234	
349.200	20.453	
349.300	23.491	
349.400	53.538	
349.500	33.097	
349.600	26.076	
349.700	46.040	
349.800	37.106	
349.900	41.374	
350.000	64.852	
350.100	10.979	
350.200	55.413	
350.300	35.843	
350.400	33.322	
350.500	43.814	
350.600	26.664	
350.700	48.708	
350.800	38.360	
350.900	25.208	
351.000	40.484	
351.100	25.571	
351.200	49.413	
351.300	45.337	
351.400	37.969	
351.500	34.171	
351.600	31.601	
351.700	43.822	
351.800	40.539	
351.900	55.046	
352.000	36.352	
352.100	33.209	
352.200	49.946	
352.300	35.408	
352.400	53.751	
352.500	33.426	
352.600	21.670	
352.700	38.021	
352.800	22.271	
352.900	22.585	
353.000	46.595	
353.100	47.906	
353.200	25.285	
353.300	35.386	
353.400	28.596	
353.500	35.257	
353.600	50.210	
353.700	36.725	
353.800	34.550	
353.900	30.653	
354.000	50.122	
354.100	34.218	
354.200	43.060	
354.300	17.181	
354.400	37.911	
354.500	29.252	
354.600	36.458	
354.700	63.100	
354.800	47.322	
354.900	22.309	
355.000	41.002	
355.100	40.233	
355.200	21.565	
355.300	39.849	
355.400	34.559	
355.500	54.353	
355.600	36.611	
355.700	37.274	
355.800	43.493	
355.900	31.759	
356.000	32.633	
356.100	67.851	
356.200	35.146	
356.300	36.619	
356.400	50.830	
356.500	22.938	
356.600	37.156	
356.700	43.748	
356.800	21.297	
356.900	51.153	
357.000	42.379	
357.100	52.488	
357.200	42.753	
357.300	24.085	
357.400	45.415	
357.500	54.544	
357.600	41.858	
357.700	34.715	
357.800	41.708	
357.900	51.105	
358.000	22.577	
358.100	41.368	
358.200	35.252	
358.300	40.610	
358.400	40.424	
358.500	37.402	
358.600	21.912	
358.700	38.434	
358.800	47.584	
358.900	66.301	
359.000	27.608	
359.100	47.316	
359.200	41.875	
359.300	38.698	
359.400	47.322	
359.500	32.161	
359.600	41.794	
359.700	36.753	
359.800	45.367	
359.900	41.645	
360.000	54.317	
360.100	34.078	
360.200	21.089	
360.300	28.040	
360.400	50.327	
360.500	51.486	
360.600	55.565	
360.700	44.798	
360.800	48.228	
360.900	46.191	
361.000	48.735	
361.100	52.821	
361.200	40.345	
361.300	13.630	
361.400	51.934	
361.500	32.033	
361.600	40.867	
361.700	46.419	
361.800	33.162	
361.900	34.241	
362.000	34.312	
362.100	45.156	
362.200	42.958	
362.300	47.775	
362.400	28.653	
362.500	35.383	
362.600	36.359	
362.700	44.911	
362.800	64.963	
362.900	38.468	
363.000	49.764	
363.100	32.173	
363.200	37.774	
363.300	50.270	
363.400	37.825	
363.500	42.990	
363.600	46.572	
363.700	22.338	
363.800	50.777	
363.900	46.711	
364.000	52.624	
364.100	36.843	
364.200	29.670	
364.300	33.174	
364.400	37.827	
364.500	53.229	
364.600	27.973	
364.700	28.480	
364.800	51.833	
364.900	30.448	
365.000	49.075	
365.100	36.470	
365.200	48.348	
365.300	24.118	
365.400	38.989	
365.500	55.426	
365.600	31.902	
365.700	32.878	
365.800	60.388	
365.900	51.041	
366.000	42.842	
366.100	54.673	
366.200	57.909	
366.300	41.463	
366.400	45.727	
366.500	38.679	
366.600	39.423	
366.700	33.837	
366.800	44.953	
366.900	43.108	
367.000	30.848	
367.100	25.327	
367.200	44.270	
367.300	40.466	
367.400	47.506	
367.500	45.847	
367.600	26.603	
367.700	-3.837	
367.800	27.892	
367.900	39.668	
368.000	59.521	
368.100	50.516	
368.200	35.087	
368.300	33.701	
368.400	44.335	
368.500	56.673	
368.600	45.715	
368.700	43.883	
368.800	41.751	
368.900	12.005	
369.000	52.596	
369.100	35.489	
369.200	47.553	
369.300	36.688	
369.400	57.215	
369.500	20.785	
369.600	31.843	
369.700	42.936	
369.800	58.422	
369.900	32.888	
370.000	44.706	
370.100	49.562	
370.200	43.321	
370.300	47.634	
370.400	51.454	
370.500	35.500	
370.600	35.759	
370.700	30.631	
370.800	43.274	
370.900	42.255	
371.000	48.707	
371.100	35.060	
371.200	52.755	
371.300	39.775	
371.400	39.098	
371.500	47.369	
371.600	34.347	
371.700	45.903	
371.800	42.675	
371.900	46.713	
372.000	38.060	
372.100	35.914	
372.200	38.378	
372.300	27.099	
372.400	59.833	
372.500	28.576	
372.600	66.935	
372.700	27.063	
372.800	42.114	
372.900	19.015	
373.000	43.597	
373.100	43.168	
373.200	38.578	
373.300	44.249	
373.400	32.203	
373.500	27.148	
373.600	38.672	
373.700	47.353	
373.800	42.272	
373.900	33.453	
374.000	42.167	
374.100	39.081	
374.200	55.372	
374.300	28.662	
374.400	46.230	
374.500	57.251	
374.600	42.942	
374.700	34.287	
374.800	45.293	
374.900	36.984	
375.000	61.361	
375.100	45.944	
375.200	45.600	
375.300	27.463	
375.400	40.381	
375.500	48.902	
375.600	37.288	
375.700	35.526	
375.800	40.777	
375.900	55.243	
376.000	58.432	
376.100	55.003	
376.200	41.854	
376.300	10.110	
376.400	19.314	
376.500	30.613	
376.600	56.100	
376.700	59.400	
376.800	55.237	
376.900	30.926	
377.000	23.904	
377.100	16.929	
377.200	55.136	
377.300	34.694	
377.400	46.295	
377.500	39.380	
377.600	39.534	
377.700	50.838	
377.800	51.073	
377.900	56.593	
378.000	19.734	
378.100	33.851	
378.200	10.704	
378.300	48.550	
378.400	30.173	
378.500	59.294	
378.600	45.387	
378.700	41.080	
378.800	31.350	
378.900	19.626	
379.000	46.908	
379.100	37.829	
379.200	25.250	
379.300	36.548	
379.400	26.813	
379.500	51.822	
379.600	26.732	
379.700	53.835	
379.800	46.234	
379.900	21.069	
380.000	22.373	
380.100	45.520	
380.200	38.887	
380.300	56.995	
380.400	36.102	
380.500	25.433	
380.600	30.006	
380.700	57.573	
380.800	43.935	
380.900	47.568	
381.000	29.455	
381.100	29.627	
381.200	38.801	
381.300	48.599	
381.400	39.506	
381.500	23.966	
381.600	44.691	
381.700	41.316	
381.800	36.565	
381.900	38.526	
382.000	32.608	
382.100	30.301	
382.200	34.255	
382.300	43.718	
382.400	47.857	
382.500	49.995	
382.600	35.775	
382.700	29.840	
382.800	24.189	
382.900	48.623	
383.000	50.242	
383.100	52.592	
383.200	40.355	
383.300	25.375	
383.400	24.470	
383.500	58.166	
383.600	42.791	
383.700	48.604	
383.800	35.939	
383.900	24.597	
384.000	43.657	
384.100	48.465	
384.200	39.200	
384.300	43.490	
384.400	33.088	
384.500	14.927	
384.600	40.535	
384.700	53.819	
384.800	44.622	
384.900	40.878	
385.000	37.744	
385.100	34.956	
385.200	51.182	
385.300	47.838	
385.400	32.658	
385.500	30.287	
385.600	33.183	
385.700	24.824	
385.800	45.955	
385.900	34.194	
386.000	33.573	
386.100	27.404	
386.200	55.025	
386.300	46.680	
386.400	26.923	
386.500	41.446	
386.600	43.445	
386.700	25.636	
386.800	38.787	
386.900	38.176	
387.000	38.316	
387.100	35.450	
387.200	53.114	
387.300	44.635	
387.400	30.136	
387.500	10.053	
387.600	58.493	
387.700	44.707	
387.800	29.548	
387.900	25.666	
388.000	32.505	
388.100	24.939	
388.200	41.375	
388.300	58.297	
388.400	42.803	
388.500	21.618	
388.600	21.358	
388.700	35.800	
388.800	53.105	
388.900	53.991	
389.000	33.269	
389.100	24.499	
389.200	24.012	
389.300	36.922	
389.400	37.227	
389.500	38.224	
389.600	43.294	
389.700	49.237	
389.800	40.039	
389.900	31.888	
390.000	44.435	
390.100	42.434	
390.200	47.739	
390.300	14.573	
390.400	16.577	
390.500	47.517	
390.600	40.312	
390.700	50.330	
390.800	18.841	
390.900	35.982	
391.000	33.958	
391.100	35.622	
391.200	39.826	
391.300	31.627	
391.400	12.609	
391.500	31.022	
391.600	9.241	
391.700	18.264	
391.800	35.941	
391.900	23.577	
392.000	28.961	
392.100	15.345	
392.200	11.749	
392.300	26.914	
392.400	24.588	
392.500	22.291	
392.600	20.016	
392.700	30.078	
392.800	22.992	
392.900	11.682	
393.000	13.198	
393.100	17.290	
393.200	6.295	
393.300	31.711	
393.400	9.085	
393.500	22.098	
393.600	15.273	
393.700	0.424	
393.800	10.740	
393.900	-12.392	
394.000	17.279	
394.100	2.138	
394.200	9.327	
394.300	6.244	
394.400	4.052	
394.500	-6.720	
394.600	18.165	
394.700	8.236	
394.800	14.628	
394.900	16.199	
395.000	4.815	
395.100	-6.844	
395.200	21.869	
395.300	18.052	
395.400	12.396	
395.500	0.775	
395.600	5.904	
395.700	-5.578	
395.800	4.659	
395.900	29.038	
396.000	18.292	
396.100	4.532	
396.200	-21.808	
396.300	25.436	
396.400	11.345	
396.500	7.740	
396.600	17.568	
396.700	4.184	
396.800	10.519	
396.900	7.251	
397.000	1.051	
397.100	20.866	
397.200	-2.408	
397.300	1.412	
397.400	15.503	
397.500	17.556	
397.600	-2.700	
397.700	10.342	
397.800	11.304	
397.900	5.866	
398.000	-8.016	
398.100	5.492	
398.200	21.807	
398.300	-4.028	
398.400	-10.722	
398.500	-11.627	
398.600	1.565	
398.700	9.721	
398.800	11.232	
398.900	11.737	
399.000	-0.563	
399.100	0.830	
399.200	-9.260	
399.300	5.008	
399.400	12.407	
399.500	15.034	
399.600	-19.609	
399.700	8.877	
399.800	-0.945	
399.900	-11.247	
400.000	1.673	
400.100	-17.871	
400.200	-1.919	
400.300	-3.873	
400.400	15.110	
400.500	-4.140	
400.600	8.947	
400.700	3.975	
400.800	-9.179	
400.900	-15.156	
401.000	-5.558	
401.100	-11.080	
401.200	16.872	
401.300	0.220	
401.400	-1.782	
401.500	-0.142	
401.600	0.596	
401.700	6.070	
401.800	2.416	
401.900	-5.906	
402.000	-12.482	
402.100	5.491	
402.200	-30.064	
402.300	-1.922	
402.400	3.627	
402.500	-0.971	
402.600	2.227	
402.700	-21.299	
402.800	-6.044	
402.900	-1.392	
403.000	1.863	
403.100	7.521	
403.200	-16.921	
403.300	6.013	
403.400	-8.249	
403.500	15.266	
403.600	-10.130	
403.700	-32.959	
403.800	-7.644	
403.900	-12.271	
404.000	10.821	
404.100	-4.255	
404.200	-4.257	
404.300	5.901	
404.400	-18.865	
404.500	-1.982	
404.600	-11.317	
404.700	-4.806	
404.800	-2.619	
404.900	-16.822	
405.000	-10.654	
405.100	-12.340	
405.200	16.174	
405.300	-4.637	
405.400	-12.155	
405.500	-19.242	
405.600	-35.197	
405.700	-13.381	
405.800	-3.369	
405.900	3.257	
406.000	-9.089	
406.100	-16.189	
406.200	-14.800	
406.300	-28.826	
406.400	9.386	
406.500	-15.174	
406.600	-8.277	
406.700	-28.053	
406.800	-21.122	
406.900	4.687	
407.000	8.712	
407.100	-7.625	
407.200	-6.808	
407.300	-13.156	
407.400	-6.621	
407.500	-13.881	
407.600	6.148	
407.700	-18.171	
407.800	-24.054	
407.900	1.727	
408.000	6.996	
408.100	-23.802	
408.200	1.190	
408.300	-10.608	
408.400	-25.402	
408.500	-7.900	
408.600	-0.596	
408.700	-3.894	
408.800	-24.587	
408.900	-29.478	
409.000	-2.308	
409.100	-3.726	
409.200	-30.052	
409.300	25.623	
409.400	-3.047	
409.500	-15.437	
409.600	-13.428	
409.700	1.932	
409.800	-6.796	
409.900	-7.077	
410.000	-13.831	
410.100	-25.586	
410.200	-7.972	
410.300	-28.387	
410.400	-4.890	
410.500	-19.981	
410.600	-20.443	
410.700	-16.534	
410.800	-36.361	
410.900	-36.702	
411.000	-2.549	
411.100	10.444	
411.200	-11.985	
411.300	-27.325	
411.400	-19.501	
411.500	-31.716	
411.600	-6.512	
411.700	-19.962	
411.800	-7.831	
411.900	-20.882	
412.000	-10.706	
412.100	-13.887	
412.200	-19.192	
412.300	-15.028	
412.400	-18.456	
412.500	-15.969	
412.600	-20.813	
412.700	-16.023	
412.800	-15.842	
412.900	-10.709	
413.000	-27.072	
413.100	-29.749	
413.200	-9.242	
413.300	-0.786	
413.400	-6.224	
413.500	-32.459	
413.600	-26.757	
413.700	-32.533	
413.800	-34.731	
413.900	-13.150	
414.000	13.104	
414.100	-8.098	
414.200	-31.910	
414.300	-6.092	
414.400	-19.296	
414.500	-23.640	
414.600	-29.765	
414.700	-24.950	
414.800	-29.886	
414.900	-22.162	
415.000	-14.255	
415.100	-7.725	
415.200	-17.620	
415.300	-22.214	
415.400	-33.478	
415.500	-13.514	
415.600	-4.661	
415.700	-0.579	
415.800	-11.776	
415.900	-24.625	
416.000	-29.415	
416.100	-26.434	
416.200	-18.704	
416.300	1.690	
416.400	-25.259	
416.500	-11.614	
416.600	-31.136	
416.700	-23.492	
416.800	-18.856	
416.900	-15.092	
417.000	-14.034	
417.100	-22.812	
417.200	-31.425	
417.300	-12.486	
417.400	3.929	
417.500	-18.480	
417.600	-28.095	
417.700	-23.157	
417.800	-6.860	
417.900	-17.433	
418.000	-26.197	
418.100	-9.915	
418.200	-0.473	
418.300	-8.659	
418.400	-26.053	
418.500	2.300	
418.600	-2.347	
418.700	-19.201	
418.800	-29.988	
418.900	-21.508	
419.000	-20.059	
419.100	-23.420	
419.200	-28.844	
419.300	-11.661	
419.400	-40.038	
419.500	-8.340	
419.600	-12.822	
419.700	-28.205	
419.800	0.769	
419.900	-13.136	
420.000	-8.134	
420.100	-48.747	
420.200	-19.635	
420.300	-6.234	
420.400	-21.739	
420.500	-13.879	
420.600	-18.749	
420.700	-7.911	
420.800	-22.938	
420.900	-8.024	
421.000	-6.591	
421.100	-12.052	
421.200	-10.579	
421.300	-31.105	
421.400	-26.782	
421.500	-10.634	
421.600	-17.201	
421.700	-8.071	
421.800	-20.107	
421.900	-27.236	
422.000	-10.270	
422.100	-14.059	
422.200	-10.936	
422.300	-18.788	
422.400	-21.614	
422.500	-20.617	
422.600	-0.680	
422.700	-9.803	
422.800	-14.181	
422.900	4.719	
423.000	-23.905	
423.100	-10.229	
423.200	1.645	
423.300	-12.129	
423.400	-4.743	
423.500	-12.344	
423.600	-25.783	
423.700	-23.890	
423.800	-18.108	
423.900	4.238	
424.000	-28.597	
424.100	-35.999	
424.200	-15.701	
424.300	-12.905	
424.400	0.764	
424.500	-6.479	
424.600	-15.730	
424.700	-23.012	
424.800	-19.099	
424.900	-24.967	
425.000	-9.082	
425.100	-23.001	
425.200	-17.699	
425.300	-48.734	
425.400	2.879	
425.500	-1.410	
425.600	-2.475	
425.700	-10.974	
425.800	-32.989	
425.900	-22.153	
426.000	-4.933	
426.100	-13.283	
426.200	-23.715	
426.300	-9.315	
426.400	-18.638	
426.500	-19.870	
426.600	-13.330	
426.700	-10.858	
426.800	-9.785	
426.900	-12.109	
427.000	-29.491	
427.100	-33.270	
427.200	-11.255	
427.300	-21.752	
427.400	2.435	
427.500	-14.751	
427.600	-52.316	
427.700	-25.095	
427.800	-17.511	
427.900	-0.636	
428.000	-21.807	
428.100	-30.115	
428.200	-16.588	
428.300	-14.489	
428.400	-17.239	
428.500	0.857	
428.600	-5.300	
428.700	-10.054	
428.800	-14.934	
428.900	-12.110	
429.000	-23.984	
429.100	-1.057	
429.200	-13.085	
429.300	-29.690	
429.400	-20.259	
429.500	-22.215	
429.600	-11.484	
429.700	-20.061	
429.800	-14.628	
429.900	-17.360	
430.000	-5.279	
430.100	-25.201	
430.200	-25.888	
430.300	-0.567	
430.400	-32.515	
430.500	-14.191	
430.600	-6.052	
430.700	-34.568	
430.800	-21.959	
430.900	4.867	
431.000	-24.227	
431.100	-22.413	
431.200	-3.408	
431.300	-9.216	
431.400	-16.561	
431.500	-7.640	
431.600	-20.992	
431.700	-22.062	
431.800	-33.673	
431.900	-3.704	
432.000	0.418	
432.100	-9.866	
432.200	-36.978	
432.300	-6.516	
432.400	-5.987	
432.500	1.423	
432.600	-5.017	
432.700	-8.655	
432.800	-27.528	
432.900	-11.228	
433.000	-7.904	
433.100	-23.298	
433.200	-21.068	
433.300	-4.635	
433.400	-4.902	
433.500	-27.057	
433.600	-14.267	
433.700	-8.042	
433.800	-18.760	
433.900	-35.890	
434.000	-21.597	
434.100	-31.043	
434.200	-14.330	
434.300	-12.756	
434.400	-4.541	
434.500	0.417	
434.600	-17.010	
434.700	-20.394	
434.800	-12.514	
434.900	-26.245	
435.000	4.705	
435.100	-8.480	
435.200	-27.346	
435.300	-22.657	
435.400	-18.839	
435.500	-35.127	
435.600	-12.607	
435.700	-18.410	
435.800	-10.900	
435.900	-31.340	
436.000	-9.404	
436.100	-11.051	
436.200	-37.404	
436.300	-21.195	
436.400	-26.235	
436.500	2.491	
436.600	3.895	
436.700	-6.408	
436.800	-12.027	
436.900	-31.956	
437.000	-19.097	
437.100	-18.203	
437.200	-17.870	
437.300	-13.795	
437.400	-23.889	
437.500	-24.860	
437.600	-19.588	
437.700	-18.563	
437.800	-23.388	
437.900	-11.798	
438.000	-20.335	
438.100	-19.564	
438.200	-27.378	
438.300	4.268	
438.400	-10.594	
438.500	-29.902	
438.600	-10.032	
438.700	-19.440	
438.800	-3.536	
438.900	-14.066	
439.000	-7.354	
439.100	-11.505	
439.200	-17.260	
439.300	-17.571	
439.400	-39.036	
439.500	-2.841	
439.600	-15.998	
439.700	-32.904	
439.800	-10.785	
439.900	-20.205	
440.000	-12.240	
440.100	-4.964	
440.200	-35.503	
440.300	-17.611	
440.400	8.654	
440.500	-16.389	
440.600	-6.719	
440.700	-9.132	
440.800	-15.771	
440.900	-10.853	
441.000	-17.572	
441.100	-11.643	
441.200	-13.726	
441.300	-22.678	
441.400	-21.689	
441.500	-11.531	
441.600	2.909	
441.700	-25.319	
441.800	-16.766	
441.900	-18.088	
442.000	-19.650	
442.100	-15.836	
442.200	-27.503	
442.300	-0.760	
442.400	-15.298	
442.500	-16.545	
442.600	-4.970	
442.700	-16.117	
442.800	-19.476	
442.900	-49.381	
443.000	26.642	
443.100	-9.535	
443.200	-19.283	
443.300	-42.072	
443.400	-21.309	
443.500	-11.176	
443.600	1.912	
443.700	-9.908	
443.800	-16.058	
443.900	-20.460	
444.000	-27.344	
444.100	-24.079	
444.200	-7.337	
444.300	-16.249	
444.400	-25.449	
444.500	-38.029	
444.600	-15.086	
444.700	-11.902	
444.800	1.544	
444.900	-3.406	
445.000	-19.676	
445.100	-8.746	
445.200	-27.904	
445.300	-17.899	
445.400	-27.554	
445.500	-0.782	
445.600	-19.187	
445.700	-11.471	
445.800	-25.715	
445.900	-9.694	
446.000	-4.419	
446.100	-17.240	
446.200	0.399	
446.300	8.357	
446.400	-4.956	
446.500	-27.956	
446.600	-4.733	
446.700	-17.529	
446.800	-36.781	
446.900	-31.590	
447.000	-19.286	
447.100	-2.689	
447.200	-27.637	
447.300	-15.572	
447.400	-8.316	
447.500	-34.719	
447.600	-13.770	
447.700	0.448	
447.800	4.262	
447.900	-41.103	
448.000	-15.297	
448.100	-14.483	
448.200	-23.147	
448.300	-8.967	
448.400	-23.269	
448.500	-14.753	
448.600	-10.517	
448.700	-18.396	
448.800	-14.519	
448.900	-8.556	
449.000	-27.152	
449.100	-6.434	
449.200	-18.797	
449.300	-17.337	
449.400	-18.865	
449.500	-5.534	
449.600	-20.378	
449.700	-42.701	
449.800	-27.666	
449.900	-15.508	
450.000	-18.603	
450.100	24.046	
450.200	-8.513	
450.300	-33.258	
450.400	-18.965	
450.500	-7.238	
450.600	-12.177	
450.700	-16.903	
450.800	3.744	
450.900	-20.162	
451.000	-33.001	
451.100	-13.949	
451.200	-43.457	
451.300	-10.750	
451.400	-7.582	
451.500	-29.065	
451.600	-9.656	
451.700	3.171	
451.800	-12.884	
451.900	-23.400	
452.000	-4.143	
452.100	-1.546	
452.200	-25.800	
452.300	6.953	
452.400	-17.797	
452.500	-5.059	
452.600	-20.870	
452.700	-29.383	
452.800	-30.358	
452.900	-10.392	
453.000	0.181	
453.100	-17.094	
453.200	-15.528	
453.300	-23.011	
453.400	-7.138	
453.500	2.796	
453.600	-21.057	
453.700	-25.690	
453.800	-11.846	
453.900	-32.337	
454.000	-5.116	
454.100	-21.143	
454.200	-10.406	
454.300	-10.941	
454.400	-20.157	
454.500	-22.384	
454.600	-15.424	
454.700	-15.264	
454.800	-14.279	
454.900	-20.702	
455.000	-17.924	
455.100	-12.030	
455.200	-16.730	
455.300	-3.467	
455.400	-17.691	
455.500	-15.805	
455.600	3.098	
455.700	-21.475	
455.800	-2.736	
455.900	-18.775	
456.000	-10.607	
456.100	-15.246	
456.200	-22.101	
456.300	-18.987	
456.400	-4.047	
456.500	-13.613	
456.600	-11.340	
456.700	-18.164	
456.800	-4.942	
456.900	-17.975	
457.000	-28.331	
457.100	5.465	
457.200	-8.988	
457.300	-11.107	
457.400	-25.948	
457.500	-8.969	
457.600	-16.415	
457.700	-11.718	
457.800	1.653	
457.900	-36.832	
458.000	-15.050	
458.100	-24.523	
458.200	8.240	
458.300	-3.244	
458.400	-17.846	
458.500	-27.628	
458.600	-28.740	
458.700	0.230	
458.800	-14.512	
458.900	-23.623	
459.000	-33.486	
459.100	0.019	
459.200	-18.973	
459.300	-9.090	
459.400	-13.195	
459.500	-14.610	
459.600	-39.506	
459.700	-25.677	
459.800	-4.126	
459.900	0.072	
460.000	-20.598	
460.100	-7.489	
460.200	-17.147	
460.300	-18.308	
460.400	-28.244	
460.500	-6.674	
460.600	-23.868	
460.700	-30.461	
460.800	-18.726	
460.900	-32.711	
461.000	1.479	
461.100	-12.538	
461.200	-17.791	
461.300	-24.185	
461.400	-28.133	
461.500	-8.394	
461.600	-6.611	
461.700	-0.229	
461.800	-9.520	
461.900	-1.609	
462.000	-17.241	
462.100	-24.281	
462.200	-6.060	
462.300	-24.773	
462.400	-10.595	
462.500	-9.944	
462.600	-11.479	
462.700	-15.100	
462.800	-5.495	
462.900	-6.266	
463.000	0.425	
463.100	-21.905	
463.200	-36.304	
463.300	-6.433	
463.400	-7.639	
463.500	-0.184	
463.600	-12.121	
463.700	-31.385	
463.800	-0.311	
463.900	-0.699	
464.000	-8.725	
464.100	-14.448	
464.200	-26.447	
464.300	-23.673	
464.400	-20.286	
464.500	-7.118	
464.600	-15.138	
464.700	-2.766	
464.800	-7.582	
464.900	-7.179	
465.000	-26.052	
465.100	-19.820	
465.200	-17.653	
465.300	-7.099	
465.400	-20.579	
465.500	-15.790	
465.600	-11.755	
465.700	-8.002	
465.800	-2.708	
465.900	1.008	
466.000	-19.773	
466.100	-7.115	
466.200	-12.417	
466.300	-5.551	
466.400	-20.169	
466.500	-15.971	
466.600	-5.063	
466.700	-23.999	
466.800	-10.051	
466.900	-8.701	
467.000	-7.370	
467.100	7.090	
467.200	-9.862	
467.300	-28.494	
467.400	-17.150	
467.500	-16.028	
467.600	-16.694	
467.700	-10.292	
467.800	2.263	
467.900	-19.688	
468.000	-17.365	
468.100	0.077	
468.200	-3.005	
468.300	-32.115	
468.400	-15.358	
468.500	-2.048	
468.600	-4.965	
468.700	-21.581	
468.800	-8.245	
468.900	-15.592	
469.000	-2.637	
469.100	-13.845	
469.200	-14.278	
469.300	-29.323	
469.400	-19.292	
469.500	-20.020	
469.600	-20.853	
469.700	-15.924	
469.800	-6.689	
469.900	-4.585	
470.000	-25.452	
470.100	-2.572	
470.200	-12.027	
470.300	-27.162	
470.400	-15.233	
470.500	-15.486	
470.600	-1.189	
470.700	-9.466	
470.800	-23.833	
470.900	-21.455	
471.000	-8.867	
471.100	-0.997	
471.200	-5.379	
471.300	-18.901	
471.400	-11.652	
471.500	-14.150	
471.600	-1.532	
471.700	-15.263	
471.800	-19.445	
471.900	-23.649	
472.000	-13.518	
472.100	-19.713	
472.200	0.439	
472.300	2.852	
472.400	-15.875	
472.500	-22.231	
472.600	-19.438	
472.700	-7.230	
472.800	-0.549	
472.900	-22.595	
473.000	-0.191	
473.100	-25.537	
473.200	-29.170	
473.300	-28.512	
473.400	-3.699	
473.500	-16.359	
473.600	-6.867	
473.700	-9.876	
473.800	-17.873	
473.900	-14.643	
474.000	-9.328	
474.100	-0.797	
474.200	-13.230	
474.300	-15.921	
474.400	-12.210	
474.500	0.716	
474.600	-7.260	
474.700	-16.152	
474.800	-19.574	
474.900	-9.307	
475.000	-9.391	
475.100	-5.942	
475.200	-4.026	
475.300	-10.000	
475.400	-19.984	
475.500	-21.440	
475.600	-30.109	
475.700	5.224	
475.800	0.289	
475.900	-14.650	
476.000	-7.196	
476.100	-30.797	
476.200	-1.703	
476.300	-17.882	
476.400	-17.247	
476.500	-12.704	
476.600	-12.583	
476.700	-12.789	
476.800	-19.951	
476.900	-3.974	
477.000	-8.343	
477.100	0.496	
477.200	-21.531	
477.300	-3.096	
477.400	-5.622	
477.500	-22.457	
477.600	-38.692	
477.700	-1.912	
477.800	-8.266	
477.900	-0.315	
478.000	-10.829	
478.100	-13.193	
478.200	-16.231	
478.300	-17.315	
478.400	-10.890	
478.500	-14.889	
478.600	-17.166	
478.700	-31.183	
478.800	-0.901	
478.900	-19.132	
479.000	1.016	
479.100	-9.052	
479.200	-4.324	
479.300	-17.663	
479.400	-32.349	
479.500	-6.814	
479.600	-23.544	
479.700	-18.253	
479.800	-17.422	
479.900	-18.530	
480.000	-20.807	
480.100	-21.985	
480.200	-25.396	
480.300	-3.025	
480.400	-8.209	
480.500	-3.807	
480.600	-16.948	
480.700	-9.740	
480.800	-0.895	
480.900	7.451	
481.000	-4.960	
481.100	-5.374	
481.200	-1.063	
481.300	-15.541	
481.400	6.272	
481.500	14.267	
481.600	-7.163	
481.700	-0.037	
481.800	-1.215	
481.900	8.630	
482.000	5.664	
482.100	-5.308	
482.200	4.854	
482.300	-13.600	
482.400	6.609	
482.500	8.766	
482.600	12.440	
482.700	8.817	
482.800	23.603	
482.900	-9.498	
483.000	-11.935	
483.100	3.473	
483.200	9.947	
483.300	-5.550	
483.400	4.580	
483.500	-7.779	
483.600	6.817	
483.700	-3.071	
483.800	21.170	
483.900	21.887	
484.000	11.977	
484.100	-12.779	
484.200	3.350	
484.300	7.997	
484.400	-3.618	
484.500	12.999	
484.600	3.228	
484.700	17.838	
484.800	-4.218	
484.900	-4.272	
485.000	7.310	
485.100	18.689	
485.200	0.843	
485.300	13.031	
485.400	-1.403	
485.500	6.780	
485.600	1.411	
485.700	1.325	
485.800	25.041	
485.900	-6.322	
486.000	-20.689	
486.100	26.521	
486.200	22.601	
486.300	9.499	
486.400	2.510	
486.500	6.680	
486.600	-1.068	
486.700	5.784	
486.800	17.641	
486.900	4.118	
487.000	7.305	
487.100	9.258	
487.200	-7.818	
487.300	14.376	
487.400	3.219	
487.500	14.384	
487.600	8.664	
487.700	-7.305	
487.800	6.656	
487.900	18.159	
488.000	12.295	
488.100	-8.363	
488.200	6.939	
488.300	20.169	
488.400	15.157	
488.500	33.629	
488.600	8.676	
488.700	24.110	
488.800	-0.446	
488.900	0.315	
489.000	5.865	
489.100	12.805	
489.200	17.704	
489.300	20.502	
489.400	4.255	
489.500	-2.322	
489.600	0.087	
489.700	17.541	
489.800	12.230	
489.900	9.621	
490.000	15.391	
490.100	14.102	
490.200	2.764	
490.300	4.079	
490.400	9.499	
490.500	21.720	
490.600	18.032	
490.700	26.052	
490.800	16.329	
490.900	37.254	
491.000	7.388	
491.100	8.126	
491.200	6.364	
491.300	20.372	
491.400	2.247	
491.500	13.991	
491.600	35.139	
491.700	22.277	
491.800	8.488	
491.900	-1.817	
492.000	22.859	
492.100	26.814	
492.200	23.644	
492.300	0.974	
492.400	27.941	
492.500	10.479	
492.600	19.821	
492.700	1.705	
492.800	9.229	
492.900	36.804	
493.000	28.267	
493.100	16.700	
493.200	30.816	
493.300	12.252	
493.400	12.783	
493.500	14.326	
493.600	26.196	
493.700	34.600	
493.800	12.994	
493.900	34.394	
494.000	14.829	
494.100	1.528	
494.200	41.237	
494.300	6.027	
494.400	32.718	
494.500	31.069	
494.600	7.317	
494.700	29.017	
494.800	34.626	
494.900	37.273	
495.000	21.434	
495.100	24.674	
495.200	18.869	
495.300	32.527	
495.400	28.456	
495.500	27.318	
495.600	23.210	
495.700	14.226	
495.800	27.338	
495.900	20.855	
496.000	16.968	
496.100	23.145	
496.200	43.366	
496.300	25.593	
496.400	35.341	
496.500	18.144	
496.600	34.186	
496.700	15.445	
496.800	27.179	
496.900	21.828	
497.000	17.216	
497.100	45.114	
497.200	41.598	
497.300	24.903	
497.400	16.385	
497.500	37.070	
497.600	43.205	
497.700	37.516	
497.800	33.830	
497.900	30.002	
498.000	41.530	
498.100	36.367	
498.200	28.278	
498.300	19.649	
498.400	48.461	
498.500	43.349	
498.600	30.513	
498.700	39.315	
498.800	28.770	
498.900	36.678	
499.000	47.376	
499.100	29.449	
499.200	58.083	
499.300	27.926	
499.400	40.984	
499.500	30.561	
499.600	46.826	
499.700	47.959	
499.800	35.813	
499.900	21.091	
500.000	29.070	
500.100	60.084	
500.200	46.440	
500.300	45.083	
500.400	33.582	
500.500	41.786	
500.600	45.620	
500.700	36.525	
500.800	38.073	
500.900	28.062	
501.000	32.482	
501.100	45.485	
501.200	39.118	
501.300	35.062	
501.400	42.166	
501.500	29.964	
501.600	51.296	
501.700	32.550	
501.800	39.011	
501.900	37.004	
502.000	41.243	
502.100	53.724	
502.200	26.522	
502.300	35.760	
502.400	44.753	
502.500	36.589	
502.600	48.569	
502.700	33.663	
502.800	43.543	
502.900	42.730	
503.000	30.607	
503.100	56.952	
503.200	45.824	
503.300	27.814	
503.400	35.585	
503.500	30.209	
503.600	48.192	
503.700	50.780	
503.800	51.659	
503.900	45.699	
504.000	43.633	
504.100	34.247	
504.200	38.339	
504.300	34.731	
504.400	34.219	
504.500	46.742	
504.600	48.503	
504.700	43.373	
504.800	25.378	
504.900	45.806	
505.000	38.222	
505.100	29.873	
505.200	32.866	
505.300	49.852	
505.400	44.278	
505.500	27.389	
505.600	53.634	
505.700	44.921	
505.800	40.843	
505.900	31.700	
506.000	44.664	
506.100	59.785	
506.200	48.341	
506.300	40.006	
506.400	27.086	
506.500	40.347	
506.600	41.620	
506.700	65.287	
506.800	12.375	
506.900	44.223	
507.000	26.212	
507.100	31.649	
507.200	48.989	
507.300	44.892	
507.400	45.904	
507.500	35.478	
507.600	27.141	
507.700	44.215	
507.800	42.086	
507.900	34.725	
508.000	48.941	
508.100	45.233	
508.200	40.724	
508.300	44.605	
508.400	59.054	
508.500	54.731	
508.600	35.369	
508.700	43.069	
508.800	29.797	
508.900	33.502	
509.000	51.046	
509.100	18.614	
509.200	45.159	
509.300	26.164	
509.400	29.473	
509.500	52.025	
509.600	57.646	
509.700	31.486	
509.800	35.665	
509.900	25.383	
510.000	60.451	
510.100	36.358	
510.200	47.163	
510.300	40.859	
510.400	32.873	
510.500	12.784	
510.600	28.453	
510.700	58.708	
510.800	55.764	
510.900	46.479	
511.000	36.147	
511.100	43.689	
511.200	47.852	
511.300	58.415	
511.400	44.628	
511.500	29.148	
511.600	32.643	
511.700	36.690	
511.800	43.041	
511.900	38.231	
512.000	49.933	
512.100	29.873	
512.200	16.305	
512.300	46.966	
512.400	42.805	
512.500	54.476	
512.600	44.041	
512.700	26.066	
512.800	43.914	
512.900	43.809	
513.000	53.249	
513.100	34.097	
513.200	16.929	
513.300	33.448	
513.400	37.778	
513.500	63.200	
513.600	51.321	
513.700	43.847	
513.800	37.576	
513.900	21.099	
514.000	22.201	
514.100	62.482	
514.200	49.317	
514.300	44.216	
514.400	49.618	
514.500	36.270	
514.600	28.243	
514.700	26.500	
514.800	57.374	
514.900	43.368	
515.000	34.789	
515.100	42.007	
515.200	55.853	
515.300	35.877	
515.400	47.662	
515.500	39.665	
515.600	19.629	
515.700	45.963	
515.800	36.628	
515.900	45.105	
516.000	81.905	
516.100	43.302	
516.200	29.583	
516.300	45.641	
516.400	47.163	
516.500	47.811	
516.600	26.262	
516.700	47.992	
516.800	22.603	
516.900	35.970	
517.000	45.645	
517.100	24.231	
517.200	59.353	
517.300	38.131	
517.400	38.046	
517.500	21.136	
517.600	38.626	
517.700	40.387	
517.800	38.254	
517.900	45.881	
518.000	42.579	
518.100	41.575	
518.200	64.064	
518.300	42.577	
518.400	31.305	
518.500	49.962	
518.600	43.418	
518.700	22.183	
518.800	44.078	
518.900	61.254	
519.000	49.914	
519.100	30.447	
519.200	41.543	
519.300	34.327	
519.400	43.202	
519.500	42.685	
519.600	57.082	
519.700	31.802	
519.800	38.391	
519.900	29.477	
520.000	60.667	
520.100	44.085	
520.200	40.907	
520.300	47.019	
520.400	40.273	
520.500	37.428	
520.600	36.419	
520.700	28.560	
520.800	37.846	
520.900	21.650	
521.000	39.722	
521.100	38.522	
521.200	39.088	
521.300	33.564	
521.400	49.249	
521.500	30.365	
521.600	43.631	
521.700	29.216	
521.800	30.726	
521.900	36.392	
522.000	27.507	
522.100	30.526	
522.200	41.598	
522.300	36.578	
522.400	24.055	
522.500	65.873	
522.600	40.949	
522.700	18.822	
522.800	23.649	
522.900	47.627	
523.000	45.888	
523.100	31.641	
523.200	55.501	
523.300	38.059	
523.400	20.137	
523.500	56.789	
523.600	55.648	
523.700	45.174	
523.800	28.694	
523.900	48.729	
524.000	35.095	
524.100	51.978	
524.200	36.371	
524.300	6.798	
524.400	34.743	
524.500	26.949	
524.600	15.195	
524.700	56.570	
524.800	46.015	
524.900	30.175	
525.000	39.241	
525.100	25.207	
525.200	48.710	
525.300	43.038	
525.400	58.304	
525.500	49.460	
525.600	44.297	
525.700	39.342	
525.800	38.108	
525.900	54.651	
526.000	52.059	
526.100	32.479	
526.200	42.882	
526.300	40.981	
526.400	64.631	
526.500	41.757	
526.600	46.860	
526.700	38.474	
526.800	20.004	
526.900	36.734	
527.000	66.202	
527.100	40.942	
527.200	31.654	
527.300	34.253	
527.400	39.203	
527.500	48.969	
527.600	44.573	
527.700	51.709	
527.800	42.196	
527.900	35.392	
528.000	40.743	
528.100	40.300	
528.200	36.682	
528.300	33.813	
528.400	42.108	
528.500	30.714	
528.600	26.960	
528.700	45.087	
528.800	46.696	
528.900	38.328	
529.000	39.277	
529.100	24.186	
529.200	43.946	
529.300	51.475	
529.400	46.327	
529.500	60.865	
529.600	46.142	
529.700	43.255	
529.800	33.916	
529.900	25.385	
530.000	34.446	
530.100	49.395	
530.200	37.306	
530.300	34.980	
530.400	29.799	
530.500	48.726	
530.600	39.918	
530.700	17.077	
530.800	36.171	
530.900	31.032	
531.000	45.428	
531.100	34.618	
531.200	45.761	
531.300	36.402	
531.400	40.259	
531.500	34.412	
531.600	59.570	
531.700	34.074	
531.800	40.807	
531.900	33.175	
532.000	25.992	
532.100	37.888	
532.200	42.488	
532.300	44.247	
532.400	36.068	
532.500	44.239	
532.600	46.953	
532.700	33.188	
532.800	52.212	
532.900	48.158	
533.000	25.649	
533.100	28.779	
533.200	24.786	
533.300	39.513	
533.400	41.489	
533.500	50.831	
533.600	29.701	
533.700	24.766	
533.800	26.228	
533.900	44.226	
534.000	49.923	
534.100	23.864	
534.200	35.170	
534.300	23.361	
534.400	20.699	
534.500	29.812	
534.600	36.469	
534.700	42.359	
534.800	32.331	
534.900	43.012	
535.000	31.027	
535.100	62.605	
535.200	41.867	
535.300	40.882	
535.400	43.178	
535.500	23.523	
535.600	33.380	
535.700	59.225	
535.800	38.685	
535.900	38.687	
536.000	40.146	
536.100	23.742	
536.200	50.164	
536.300	28.053	
536.400	39.079	
536.500	48.666	
536.600	32.395	
536.700	17.104	
536.800	46.276	
536.900	48.025	
537.000	48.049	
537.100	39.592	
537.200	55.378	
537.300	34.062	
537.400	36.246	
537.500	38.578	
537.600	41.078	
537.700	41.432	
537.800	30.565	
537.900	35.065	
538.000	36.426	
538.100	43.152	
538.200	48.701	
538.300	41.434	
538.400	34.026	
538.500	35.577	
538.600	32.382	
538.700	40.069	
538.800	51.601	
538.900	33.286	
539.000	31.002	
539.100	28.681	
539.200	33.269	
539.300	45.225	
539.400	58.253	
539.500	25.461	
539.600	29.051	
539.700	24.844	
539.800	42.559	
539.900	27.153	
540.000	32.526	
540.100	31.515	
540.200	31.294	
540.300	23.441	
540.400	46.698	
540.500	34.164	
540.600	16.408	
540.700	19.374	
540.800	28.273	
540.900	45.936	
541.000	13.583	
541.100	25.732	
541.200	35.070	
541.300	4.760	
541.400	24.581	
541.500	23.170	
541.600	33.544	
541.700	26.362	
541.800	25.433	
541.900	4.073	
542.000	11.492	
542.100	30.486	
542.200	20.755	
542.300	31.149	
542.400	24.646	
542.500	12.456	
542.600	7.802	
542.700	25.948	
542.800	9.841	
542.900	20.657	
543.000	8.818	
543.100	11.498	
543.200	12.037	
543.300	9.848	
543.400	40.744	
543.500	9.870	
543.600	9.844	
543.700	5.747	
543.800	9.304	
543.900	18.535	
544.000	23.436	
544.100	10.204	
544.200	0.111	
544.300	10.806	
544.400	13.673	
544.500	33.232	
544.600	4.036	
544.700	1.209	
544.800	4.185	
544.900	-6.494	
545.000	13.301	
545.100	38.020	
545.200	15.677	
545.300	-10.318	
545.400	18.495	
545.500	6.523	
545.600	17.318	
545.700	25.677	
545.800	-1.978	
545.900	-6.237	
546.000	-3.810	
546.100	-6.808	
546.200	8.607	
546.300	17.191	
546.400	14.353	
546.500	-13.312	
546.600	-2.912	
546.700	15.241	
546.800	16.779	
546.900	0.649	
547.000	-2.603	
547.100	0.852	
547.200	-10.222	
547.300	4.290	
547.400	8.101	
547.500	4.758	
547.600	1.869	
547.700	8.952	
547.800	-6.472	
547.900	12.803	
548.000	17.174	
548.100	3.799	
548.200	2.562	
548.300	-4.692	
548.400	-5.847	
548.500	1.838	
548.600	20.517	
548.700	10.581	
548.800	1.902	
548.900	-7.654	
549.000	1.301	
549.100	-4.191	
549.200	3.021	
549.300	-11.665	
549.400	-2.440	
549.500	-8.467	
549.600	14.417	
549.700	3.124	
549.800	5.125	
549.900	4.355	
550.000	-8.156	
550.100	-11.172	
550.200	-6.820	
550.300	5.928	
550.400	-8.137	
550.500	-18.314	
550.600	-0.173	
550.700	2.229	
550.800	-0.883	
550.900	0.115	
551.000	3.116	
551.100	-19.708	
551.200	-13.720	
551.300	-10.839	
551.400	4.039	
551.500	8.233	
551.600	-0.746	
551.700	9.621	
551.800	2.573	
551.900	-21.030	
552.000	-12.831	
552.100	7.611	
552.200	-7.331	
552.300	-16.004	
552.400	-15.645	
552.500	-8.842	
552.600	1.171	
552.700	-0.098	
552.800	-3.042	
552.900	15.389	
553.000	-9.185	
553.100	-9.448	
553.200	6.731	
553.300	-5.873	
553.400	-3.103	
553.500	-18.871	
553.600	9.169	
553.700	-3.573	
553.800	-3.470	
553.900	-4.498	
554.000	3.999	
554.100	4.067	
554.200	-16.576	
554.300	-0.800	
554.400	-0.875	
554.500	-22.139	
554.600	6.929	
554.700	-2.174	
554.800	-14.939	
554.900	-19.845	
555.000	10.450	
555.100	-14.361	
555.200	-11.130	
555.300	-11.377	
555.400	-18.503	
555.500	-16.695	
555.600	-26.154	
555.700	14.584	
555.800	-17.251	
555.900	-18.525	
556.000	-13.705	
556.100	-4.064	
556.200	-2.255	
556.300	13.931	
556.400	-9.769	
556.500	-22.491	
556.600	-10.651	
556.700	1.093	
556.800	-9.612	
556.900	3.236	
557.000	-13.783	
557.100	-19.261	
557.200	-20.510	
557.300	9.168	
557.400	-8.410	
557.500	-9.470	
557.600	-18.241	
557.700	-6.603	
557.800	-16.251	
557.900	5.221	
558.000	-9.449	
558.100	-15.564	
558.200	-20.534	
558.300	-16.779	
558.400	-16.568	
558.500	-12.794	
558.600	-11.603	
558.700	-13.002	
558.800	-5.106	
558.900	-5.131	
559.000	-12.959	
559.100	-1.378	
559.200	-18.195	
559.300	-6.986	
559.400	-16.993	
559.500	-6.782	
559.600	-5.030	
559.700	-7.978	
559.800	-18.646	
559.900	-22.676	
560.000	-25.885	
560.100	-13.822	
560.200	-14.366	
560.300	-13.312	
560.400	4.635	
560.500	-16.680	
560.600	-12.654	
560.700	-39.031	
560.800	2.536	
560.900	-7.988	
561.000	-4.321	
561.100	-21.473	
561.200	-24.251	
561.300	-33.357	
561.400	-8.783	
561.500	-11.639	
561.600	-14.132	
561.700	-36.168	
561.800	-7.589	
561.900	-18.486	
562.000	-7.959	
562.100	-20.769	
562.200	-14.724	
562.300	-24.390	
562.400	-2.528	
562.500	-8.684	
562.600	5.215	
562.700	-16.876	
562.800	-35.326	
562.900	-34.140	
563.000	-9.497	
563.100	-12.533	
563.200	-22.000	
563.300	-36.303	
563.400	-17.472	
563.500	-29.441	
563.600	-19.353	
563.700	-13.442	
563.800	-21.142	
563.900	-19.448	
564.000	-31.459	
564.100	-15.034	
564.200	-4.301	
564.300	-8.508	
564.400	-5.833	
564.500	-15.781	
564.600	-59.332	
564.700	-16.770	
564.800	-22.080	
564.900	-5.934	
565.000	-7.465	
565.100	-24.627	
565.200	-23.913	
565.300	-23.926	
565.400	-0.549	
565.500	-25.531	
565.600	-21.712	
565.700	-6.214	
565.800	-25.292	
565.900	-13.779	
566.000	-42.582	
566.100	2.563	
566.200	-1.919	
566.300	-14.056	
566.400	-14.683	
566.500	-28.002	
566.600	-18.432	
566.700	-24.452	
566.800	-8.421	
566.900	-19.843	
567.000	-28.378	
567.100	-13.436	
567.200	-21.697	
567.300	-12.174	
567.400	-29.959	
567.500	-31.567	
567.600	-7.788	
567.700	-20.085	
567.800	-8.403	
567.900	-5.155	
568.000	-15.780	
568.100	-29.386	
568.200	-20.691	
568.300	-12.909	
568.400	-2.605	
568.500	-12.577	
568.600	-19.175	
568.700	-29.673	
568.800	-9.781	
568.900	-26.957	
569.000	3.091	
569.100	-21.986	
569.200	-16.609	
569.300	-40.493	
569.400	-18.296	
569.500	-18.254	
569.600	-9.274	
569.700	-23.041	
569.800	-41.649	
569.900	-33.538	
570.000	16.729	
570.100	-9.636	
570.200	-10.811	
570.300	-33.214	
570.400	-33.619	
570.500	-3.586	
570.600	-8.898	
570.700	-5.439	
570.800	-33.083	
570.900	-17.494	
571.000	-30.572	
571.100	-6.412	
571.200	-20.804	
571.300	-27.118	
571.400	-24.177	
571.500	-21.464	
571.600	-11.768	
571.700	-22.003	
571.800	-9.309	
571.900	-26.809	
572.000	0.683	
572.100	-15.115	
572.200	-23.174	
572.300	-29.695	
572.400	1.878	
572.500	-18.237	
572.600	-14.967	
572.700	-33.042	
572.800	-11.191	
572.900	-23.061	
573.000	-23.000	
573.100	10.886	
573.200	-13.625	
573.300	-26.531	
573.400	-31.066	
573.500	-7.450	
573.600	-16.227	
573.700	-27.451	
573.800	-6.450	
573.900	-29.418	
574.000	-11.637	
574.100	-21.642	
574.200	-23.313	
574.300	-16.065	
574.400	-18.251	
574.500	-12.722	
574.600	-41.054	
574.700	-19.690	
574.800	-12.786	
574.900	-7.351	
575.000	-18.379	
575.100	-22.667	
575.200	-25.584	
575.300	-8.742	
575.400	-23.990	
575.500	-14.059	
575.600	-21.105	
575.700	-22.796	
575.800	-20.381	
575.900	6.280	
576.000	-17.301	
576.100	-30.630	
576.200	-13.250	
576.300	-43.270	
576.400	-8.416	
576.500	-24.832	
576.600	-33.044	
576.700	-1.606	
576.800	-27.326	
576.900	-0.187	
577.000	-4.221	
577.100	9.586	
577.200	-23.705	
577.300	-12.446	
577.400	-7.318	
577.500	-26.227	
577.600	-41.337	
577.700	-8.682	
577.800	-9.955	
577.900	-26.231	
578.000	-10.040	
578.100	-12.001	
578.200	-20.381	
578.300	-16.672	
578.400	-19.330	
578.500	-16.912	
578.600	-22.906	
578.700	-20.648	
578.800	-13.915	
578.900	-20.216	
579.000	-21.020	
579.100	-12.398	
579.200	-20.549	
579.300	-9.735	
579.400	-14.691	
579.500	-1.368	
579.600	-23.466	
579.700	-14.386	
579.800	-17.609	
579.900	-46.293	
580.000	-16.371	
580.100	2.082	
580.200	-15.021	
580.300	-17.193	
580.400	-27.256	
580.500	-32.564	
580.600	-21.663	
580.700	-20.699	
580.800	-8.934	
580.900	-14.512	
581.000	-24.075	
581.100	-15.817	
581.200	-21.153	
581.300	-12.854	
581.400	-11.253	
581.500	-12.503	
581.600	-33.192	
581.700	-19.407	
581.800	-31.514	
581.900	-5.903	
582.000	-7.738	
582.100	-19.006	
582.200	-35.777	
582.300	-23.264	
582.400	-11.330	
582.500	-15.319	
582.600	-16.934	
582.700	-19.814	
582.800	-27.103	
582.900	-16.573	
583.000	-11.270	
583.100	-19.789	
583.200	-17.607	
583.300	-17.592	
583.400	-13.858	
583.500	-5.551	
583.600	-25.057	
583.700	-14.527	
583.800	-29.286	
583.900	-18.575	
584.000	-27.331	
584.100	-20.105	
584.200	-7.880	
584.300	-5.581	
584.400	-23.597	
584.500	-44.291	
584.600	5.969	
584.700	-21.046	
584.800	-8.737	
584.900	-16.427	
585.000	-27.237	
585.100	-21.006	
585.200	-10.357	
585.300	-18.636	
585.400	12.069	
585.500	-15.405	
585.600	-11.621	
585.700	-13.728	
585.800	-17.492	
585.900	-20.848	
586.000	-12.291	
586.100	-19.077	
586.200	-15.867	
586.300	-16.149	
586.400	-2.784	
586.500	-4.246	
586.600	-25.705	
586.700	-14.098	
586.800	-32.941	
586.900	-18.892	
587.000	-16.439	
587.100	-10.153	
587.200	-26.347	
587.300	-30.492	
587.400	-29.134	
587.500	-15.274	
587.600	8.034	
587.700	-6.671	
587.800	-26.825	
587.900	-27.584	
588.000	-13.193	
588.100	-13.893	
588.200	-3.077	
588.300	-13.868	
588.400	-16.518	
588.500	-4.048	
588.600	-28.365	
588.700	-18.920	
588.800	-8.652	
588.900	-15.433	
589.000	-12.125	
589.100	-18.179	
589.200	-16.472	
589.300	-27.639	
589.400	-16.088	
589.500	-4.314	
589.600	-4.758	
589.700	-24.946	
589.800	8.656	
589.900	-3.830	
590.000	-18.504	
590.100	-12.315	
590.200	-18.431	
590.300	-28.417	
590.400	-6.247	
590.500	-30.965	
590.600	-23.131	
590.700	-14.200	
590.800	-34.989	
590.900	-15.023	
591.000	-14.294	
591.100	-15.304	
591.200	-14.468	
591.300	-22.491	
591.400	-8.052	
591.500	-52.554	
591.600	-10.500	
591.700	-8.185	
591.800	-4.679	
591.900	-17.414	
592.000	0.046	
592.100	-27.089	
592.200	-11.538	
592.300	-2.548	
592.400	-12.319	
592.500	2.328	
592.600	-27.194	
592.700	-13.514	
592.800	-28.614	
592.900	-3.347	
593.000	-17.327	
593.100	-15.692	
593.200	-34.542	
593.300	-32.719	
593.400	-13.052	
593.500	-20.632	
593.600	4.583	
593.700	-17.315	
593.800	-23.893	
593.900	-26.756	
594.000	-25.468	
594.100	-17.414	
594.200	8.911	
594.300	-14.970	
594.400	-29.685	
594.500	-9.996	
594.600	-33.485	
594.700	-7.666	
594.800	-11.302	
594.900	-5.162	
595.000	-21.247	
595.100	-31.572	
595.200	-3.953	
595.300	-8.109	
595.400	-16.247	
595.500	-13.620	
595.600	-11.658	
595.700	-21.272	
595.800	-18.681	
595.900	-14.919	
596.000	-24.254	
596.100	-21.000	
596.200	-17.019	
596.300	-10.214	
596.400	-13.810	
596.500	-1.247	
596.600	-31.594	
596.700	-23.299	
596.800	-15.983	
596.900	-24.098	
597.000	-14.124	
597.100	-18.709	
597.200	5.429	
597.300	-32.633	
597.400	-9.534	
597.500	-17.702	
597.600	-3.541	
597.700	-11.839	
597.800	-6.497	
597.900	-16.739	
598.000	-31.750	
598.100	-12.956	
598.200	-16.087	
598.300	0.703	
598.400	-24.738	
598.500	-31.913	
598.600	-23.786	
598.700	-5.894	
598.800	-6.942	
598.900	-9.519	
599.000	-21.267	
599.100	-15.325	
599.200	-22.320	
599.300	0.174	
599.400	-23.603	
599.500	-15.863	
599.600	-41.172	
599.700	-43.950	
599.800	-2.167	
599.900	-6.928	
600.000	0.342	
600.100	-17.617	
600.200	-28.277	
600.300	-11.464	
600.400	-12.273	
600.500	-7.036	
600.600	-17.157	
600.700	-17.490	
600.800	-19.926	
600.900	-26.521	
601.000	-21.603	
601.100	2.293	
601.200	-18.733	
601.300	-29.216	
601.400	-17.767	
601.500	-12.493	
601.600	-21.584	
601.700	-3.051	
601.800	-13.046	
601.900	-26.138	
602.000	-33.531	
602.100	-14.660	
602.200	-6.580	
602.300	-4.250	
602.400	-13.405	
602.500	-29.537	
602.600	-23.572	
602.700	-17.913	
602.800	-19.248	
602.900	-18.582	
603.000	-13.483	
603.100	-37.765	
603.200	-20.270	
603.300	-30.848	
603.400	0.761	
603.500	-23.581	
603.600	-4.166	
603.700	-23.376	
603.800	-24.972	
603.900	-21.465	
604.000	-6.662	
604.100	-8.783	
604.200	-0.559	
604.300	-15.194	
604.400	-6.404	
604.500	3.076	
604.600	-9.460	
604.700	-15.469	
604.800	-19.685	
604.900	-20.774	
605.000	-5.416	
605.100	-8.458	
605.200	-12.802	
605.300	2.433	
605.400	-27.651	
605.500	-31.730	
605.600	-0.094	
605.700	-34.103	
605.800	-9.503	
605.900	-0.280	
606.000	-25.084	
606.100	-9.487	
606.200	-10.156	
606.300	-1.871	
606.400	-15.984	
606.500	-15.074	
606.600	-15.688	
606.700	-15.521	
606.800	5.901	
606.900	-21.613	
607.000	-12.821	
607.100	-16.378	
607.200	-22.167	
607.300	-17.026	
607.400	-6.217	
607.500	-30.224	
607.600	-9.692	
607.700	-19.136	
607.800	-30.675	
607.900	0.481	
608.000	-2.279	
608.100	-8.024	
608.200	-16.242	
608.300	-9.307	
608.400	-19.066	
608.500	-12.099	
608.600	-29.566	
608.700	-4.114	
608.800	-5.243	
608.900	-18.819	
609.000	-35.598	
609.100	0.052	
609.200	0.521	
609.300	-7.537	
609.400	-19.013	
609.500	-16.358	
609.600	-31.633	
609.700	-9.172	
609.800	6.369	
609.900	-27.613	
610.000	-33.964	
610.100	-23.730	
610.200	-9.430	
610.300	-15.996	
610.400	-2.354	
610.500	-26.899	
610.600	-19.524	
610.700	-10.669	
610.800	-26.371	
610.900	-4.557	
611.000	-19.938	
611.100	-15.493	
611.200	-15.331	
611.300	-33.222	
611.400	-24.556	
611.500	-4.361	
611.600	8.107	
611.700	6.292	
611.800	-28.484	
611.900	-18.328	
612.000	8.321	
612.100	-17.282	
612.200	0.977	
612.300	-3.407	
612.400	-22.886	
612.500	-14.031	
612.600	-0.727	
612.700	-12.042	
612.800	15.622	
612.900	-33.893	
613.000	-29.191	
613.100	-40.169	
613.200	-17.578	
613.300	7.035	
613.400	-9.686	
613.500	-1.239	
613.600	-26.580	
613.700	-25.597	
613.800	-22.733	
613.900	-24.980	
614.000	4.319	
614.100	-10.807	
614.200	-31.094	
614.300	-15.408	
614.400	3.742	
614.500	1.825	
614.600	-15.019	
614.700	-23.046	
614.800	-31.710	
614.900	-40.150	
615.000	-23.116	
615.100	-10.605	
615.200	-20.644	
615.300	-30.869	
615.400	-17.036	
615.500	-3.452	
615.600	-34.029	
615.700	-21.273	
615.800	2.737	
615.900	-19.220	
616.000	-19.723	
616.100	-23.118	
616.200	-21.837	
616.300	0.198	
616.400	-21.833	
616.500	-30.753	
616.600	-24.705	
616.700	-23.381	
616.800	-12.954	
616.900	-26.469	
617.000	-3.104	
617.100	-10.872	
617.200	-13.121	
617.300	-15.783	
617.400	-20.812	
617.500	-27.711	
617.600	-25.938	
617.700	-16.077	
617.800	-2.015	
617.900	-5.751	
618.000	1.835	
618.100	-27.564	
618.200	-15.299	
618.300	-21.492	
618.400	-12.220	
618.500	-14.300	
618.600	-27.086	
618.700	-0.751	
618.800	-17.887	
618.900	-21.339	
619.000	-37.012	
619.100	7.870	
619.200	-9.778	
619.300	-13.702	
619.400	-26.629	
619.500	-30.522	
619.600	-9.050	
619.700	-13.059	
619.800	2.548	
619.900	-11.537	
620.000	-29.242	
620.100	-8.550	
620.200	-8.748	
620.300	-18.115	
620.400	-15.181	
620.500	-19.886	
620.600	-9.698	
620.700	-24.107	
620.800	-20.415	
620.900	-10.195	
621.000	-13.750	
621.100	-0.377	
621.200	-16.426	
621.300	-24.937	
621.400	-6.262	
621.500	-5.298	
621.600	-5.152	
621.700	-30.807	
621.800	-18.260	
621.900	-15.595	
622.000	-5.071	
622.100	4.174	
622.200	-1.221	
622.300	-24.803	
622.400	-19.057	
622.500	-1.281	
622.600	-8.415	
622.700	-14.185	
622.800	-0.291	
622.900	-23.817	
623.000	-16.093	
623.100	0.013	
623.200	-25.260	
623.300	9.137	
623.400	-13.702	
623.500	-25.276	
623.600	-7.895	
623.700	1.906	
623.800	-11.406	
623.900	-16.894	
624.000	-16.967	
624.100	-23.572	
624.200	-11.798	
624.300	-1.347	
624.400	-13.309	
624.500	-27.905	
624.600	-10.078	
624.700	-30.779	
624.800	-14.099	
624.900	-3.171	
625.000	-12.370	
625.100	-20.042	
625.200	-21.347	
625.300	-26.263	
625.400	-5.066	
625.500	-9.095	
625.600	7.658	
625.700	-1.814	
625.800	-26.548	
625.900	-5.143	
626.000	-29.051	
626.100	-10.203	
626.200	-21.976	
626.300	-5.285	
626.400	-25.370	
626.500	-18.986	
626.600	-7.268	
626.700	3.274	
626.800	-20.800	
626.900	-5.120	
627.000	-13.069	
627.100	-18.282	
627.200	-16.404	
627.300	-0.360	
627.400	-11.186	
627.500	-19.234	
627.600	-13.669	
627.700	-22.159	
627.800	-21.484	
627.900	-17.613	
628.000	4.324	
628.100	-14.527	
628.200	-28.065	
628.300	-22.041	
628.400	1.750	
628.500	-1.600	
628.600	-47.080	
628.700	-17.205	
628.800	2.646	
628.900	-31.792	
629.000	-22.758	
629.100	22.096	
629.200	-8.032	
629.300	-29.061	
629.400	-28.612	
629.500	-14.065	
629.600	-9.024	
629.700	-19.534	
629.800	-16.115	
629.900	-17.927	
630.000	-35.184	
630.100	-10.949	
630.200	-16.619	
630.300	11.049	
630.400	-4.548	
630.500	-30.949	
630.600	-7.028	
630.700	-29.182	
630.800	-0.704	
630.900	-5.525	
631.000	-9.524	
631.100	-5.317	
631.200	6.934	
631.300	-1.864	
631.400	13.717	
631.500	9.978	
631.600	-17.131	
631.700	-1.655	
631.800	-6.763	
631.900	16.877	
632.000	28.223	
632.100	4.474	
632.200	-1.437	
632.300	-10.871	
632.400	-4.707	
632.500	0.903	
632.600	4.996	
632.700	6.065	
632.800	0.271	
632.900	18.768	
633.000	-8.223	
633.100	12.169	
633.200	0.927	
633.300	-0.120	
633.400	7.696	
633.500	-5.495	
633.600	-1.435	
633.700	19.731	
633.800	11.272	
633.900	-14.046	
634.000	19.569	
634.100	3.111	
634.200	7.605	
634.300	7.063	
634.400	0.905	
634.500	11.648	
634.600	5.820	
634.700	7.704	
634.800	15.578	
634.900	7.015	
635.000	-6.479	
635.100	-0.915	
635.200	-15.145	
635.300	10.061	
635.400	17.003	
635.500	16.425	
635.600	1.729	
635.700	10.536	
635.800	-8.881	
635.900	9.335	
636.000	12.490	
636.100	22.185	
636.200	6.914	
636.300	8.061	
636.400	-6.951	
636.500	6.479	
636.600	18.649	
636.700	-0.863	
636.800	3.284	
636.900	12.079	
637.000	-1.930	
637.100	0.032	
637.200	22.226	
637.300	17.699	
637.400	11.856	
637.500	-3.548	
637.600	10.266	
637.700	6.802	
637.800	15.357	
637.900	0.946	
638.000	-2.969	
638.100	6.110	
638.200	7.252	
638.300	22.025	
638.400	0.354	
638.500	9.940	
638.600	-4.398	
638.700	4.255	
638.800	24.681	
638.900	14.820	
639.000	26.374	
639.100	16.170	
639.200	-1.958	
639.300	1.455	
639.400	11.352	
639.500	17.002	
639.600	29.277	
639.700	19.803	
639.800	14.084	
639.900	7.015	
640.000	12.670	
640.100	11.735	
640.200	31.150	
640.300	1.148	
640.400	11.160	
640.500	4.897	
640.600	3.478	
640.700	20.530	
640.800	-5.475	
640.900	24.064	
641.000	7.917	
641.100	11.158	
641.200	15.787	
641.300	31.179	
641.400	26.932	
641.500	24.300	
641.600	19.628	
641.700	12.020	
641.800	-6.518	
641.900	17.207	
642.000	8.335	
642.100	14.559	
642.200	16.680	
642.300	18.376	
642.400	20.792	
642.500	22.439	
642.600	1.255	
642.700	28.575	
642.800	20.888	
642.900	13.018	
643.000	44.457	
643.100	21.974	
643.200	20.799	
643.300	20.025	
643.400	0.659	
643.500	20.573	
643.600	38.776	
643.700	13.436	
643.800	26.726	
643.900	12.144	
644.000	6.138	
644.100	14.781	
644.200	17.837	
644.300	22.429	
644.400	10.381	
644.500	9.875	
644.600	18.799	
644.700	4.131	
644.800	22.738	
644.900	29.393	
645.000	37.835	
645.100	15.878	
645.200	25.103	
645.300	5.954	
645.400	41.812	
645.500	42.484	
645.600	12.441	
645.700	34.080	
645.800	19.379	
645.900	22.728	
646.000	17.243	
646.100	53.173	
646.200	14.865	
646.300	31.038	
646.400	29.435	
646.500	25.110	
646.600	20.390	
646.700	30.418	
646.800	22.321	
646.900	21.379	
647.000	30.142	
647.100	27.891	
647.200	23.063	
647.300	13.264	
647.400	37.341	
647.500	36.073	
647.600	43.939	
647.700	23.981	
647.800	30.643	
647.900	29.226	
648.000	28.547	
648.100	35.174	
648.200	19.349	
648.300	48.864	
648.400	39.486	
648.500	19.271	
648.600	29.620	
648.700	45.164	
648.800	44.050	
648.900	26.166	
649.000	33.901	
649.100	25.890	
649.200	32.567	
649.300	47.240	
649.400	49.105	
649.500	43.743	
649.600	29.121	
649.700	44.196	
649.800	38.644	
649.900	25.331	
650.000	45.695	
650.100	46.737	
650.200	28.303	
650.300	30.655	
650.400	22.840	
650.500	42.207	
650.600	54.283	
650.700	30.967	
650.800	30.432	
650.900	33.361	
651.000	20.008	
651.100	51.610	
651.200	31.724	
651.300	34.174	
651.400	40.775	
651.500	32.840	
651.600	35.259	
651.700	40.715	
651.800	7.626	
651.900	49.603	
652.000	38.104	
652.100	34.707	
652.200	35.394	
652.300	51.703	
652.400	53.626	
652.500	23.076	
652.600	34.792	
652.700	20.450	
652.800	43.762	
652.900	39.388	
653.000	39.345	
653.100	7.956	
653.200	39.569	
653.300	39.745	
653.400	13.824	
653.500	52.550	
653.600	54.659	
653.700	40.691	
653.800	50.193	
653.900	20.116	
654.000	40.714	
654.100	40.754	
654.200	51.184	
654.300	39.893	
654.400	34.896	
654.500	36.965	
654.600	50.947	
654.700	51.335	
654.800	40.308	
654.900	40.154	
655.000	21.700	
655.100	28.220	
655.200	53.825	
655.300	50.891	
655.400	47.386	
655.500	49.488	
655.600	39.765	
655.700	29.656	
655.800	48.415	
655.900	39.315	
656.000	45.204	
656.100	28.098	
656.200	28.213	
656.300	52.523	
656.400	46.047	
656.500	24.273	
656.600	44.607	
656.700	28.921	
656.800	21.522	
656.900	38.041	
657.000	56.458	
657.100	47.972	
657.200	39.617	
657.300	30.682	
657.400	51.908	
657.500	32.959	
657.600	58.384	
657.700	46.814	
657.800	36.237	
657.900	31.947	
658.000	35.876	
658.100	51.552	
658.200	47.469	
658.300	35.988	
658.400	38.310	
658.500	20.522	
658.600	49.256	
658.700	47.624	
658.800	37.715	
658.900	50.918	
659.000	34.907	
659.100	17.695	
659.200	36.712	
659.300	55.822	
659.400	28.758	
659.500	41.579	
659.600	42.016	
659.700	42.534	
659.800	35.072	
659.900	50.534	
660.000	52.723	
660.100	39.368	
660.200	37.348	
660.300	42.909	
660.400	19.595	
660.500	46.981	
660.600	41.731	
660.700	51.309	
660.800	32.779	
660.900	22.733	
661.000	52.656	
661.100	43.629	
661.200	53.225	
661.300	30.631	
661.400	30.521	
661.500	31.605	
661.600	35.968	
661.700	46.711	
661.800	57.229	
661.900	37.742	
662.000	46.791	
662.100	40.280	
662.200	48.968	
662.300	42.435	
662.400	18.362	
662.500	61.173	
662.600	47.294	
662.700	41.154	
662.800	47.218	
662.900	46.654	
663.000	53.747	
663.100	7.857	
663.200	37.720	
663.300	44.946	
663.400	45.089	
663.500	57.286	
663.600	58.072	
663.700	61.315	
663.800	37.777	
663.900	37.197	
664.000	33.740	
664.100	35.637	
664.200	60.454	
664.300	29.162	
664.400	49.579	
664.500	44.264	
664.600	38.958	
664.700	41.862	
664.800	46.676	
664.900	27.580	
665.000	42.130	
665.100	38.241	
665.200	53.491	
665.300	47.246	
665.400	48.074	
665.500	24.597	
665.600	57.596	
665.700	46.734	
665.800	44.058	
665.900	56.165	
666.000	33.169	
666.100	45.698	
666.200	45.770	
666.300	29.924	
666.400	54.411	
666.500	46.107	
666.600	44.471	
666.700	17.779	
666.800	45.358	
666.900	44.956	
667.000	45.248	
667.100	41.997	
667.200	16.241	
667.300	32.294	
667.400	51.082	
667.500	33.183	
667.600	63.436	
667.700	39.723	
667.800	24.327	
667.900	31.838	
668.000	49.602	
668.100	47.776	
668.200	33.155	
668.300	25.905	
668.400	35.124	
668.500	40.754	
668.600	44.013	
668.700	43.107	
668.800	63.637	
668.900	37.813	
669.000	21.417	
669.100	53.597	
669.200	51.665	
669.300	59.075	
669.400	31.128	
669.500	28.917	
669.600	15.968	
669.700	54.220	
669.800	58.238	
669.900	51.327	
670.000	43.481	
670.100	42.492	
670.200	33.198	
670.300	32.320	
670.400	37.931	
670.500	34.851	
670.600	44.559	
670.700	32.193	
670.800	37.369	
670.900	49.114	
671.000	62.941	
671.100	25.471	
671.200	38.467	
671.300	17.117	
671.400	45.347	
671.500	52.251	
671.600	55.038	
671.700	38.499	
671.800	38.832	
671.900	25.450	
672.000	52.752	
672.100	48.671	
672.200	39.914	
672.300	45.319	
672.400	43.807	
672.500	31.987	
672.600	29.900	
672.700	47.243	
672.800	38.751	
672.900	35.781	
673.000	22.956	
673.100	39.424	
673.200	48.222	
673.300	45.869	
673.400	40.151	
673.500	49.982	
673.600	49.738	
673.700	33.890	
673.800	22.403	
673.900	50.767	
674.000	17.976	
674.100	39.415	
674.200	50.978	
674.300	44.819	
674.400	47.032	
674.500	19.117	
674.600	34.997	
674.700	47.844	
674.800	34.992	
674.900	37.162	
675.000	32.492	
675.100	41.701	
675.200	30.187	
675.300	33.227	
675.400	34.494	
675.500	43.056	
675.600	49.688	
675.700	49.858	
675.800	55.773	
675.900	39.337	
676.000	27.938	
676.100	37.151	
676.200	42.847	
676.300	57.724	
676.400	29.317	
676.500	31.210	
676.600	29.077	
676.700	40.831	
676.800	44.143	
676.900	42.702	
677.000	45.407	
677.100	35.480	
677.200	36.409	
677.300	32.742	
677.400	31.072	
677.500	34.576	
677.600	43.213	
677.700	30.965	
677.800	37.252	
677.900	65.838	
678.000	39.562	
678.100	40.061	
678.200	29.636	
678.300	34.844	
678.400	46.344	
678.500	48.631	
678.600	46.708	
678.700	30.284	
678.800	31.105	
678.900	27.726	
679.000	39.342	
679.100	45.885	
679.200	49.975	
679.300	44.979	
679.400	31.353	
679.500	44.114	
679.600	35.778	
679.700	36.663	
679.800	41.642	
679.900	31.518	
680.000	33.728	
680.100	30.719	
680.200	54.758	
680.300	34.333	
680.400	36.073	
680.500	35.801	
680.600	34.065	
680.700	36.764	
680.800	62.688	
680.900	36.138	
681.000	34.381	
681.100	23.464	
681.200	36.705	
681.300	50.295	
681.400	45.863	
681.500	33.977	
681.600	25.200	
681.700	54.590	
681.800	37.968	
681.900	46.206	
682.000	57.206	
682.100	21.150	
682.200	39.458	
682.300	42.020	
682.400	28.774	
682.500	38.454	
682.600	57.867	
682.700	35.768	
682.800	41.881	
682.900	26.688	
683.000	26.826	
683.100	51.540	
683.200	45.841	
683.300	39.297	
683.400	44.361	
683.500	30.833	
683.600	35.191	
683.700	44.825	
683.800	34.909	
683.900	30.079	
684.000	23.915	
684.100	38.780	
684.200	20.095	
684.300	36.152	
684.400	66.355	
684.500	48.107	
684.600	35.763	
684.700	42.038	
684.800	46.606	
684.900	40.150	
685.000	44.845	
685.100	46.441	
685.200	31.043	
685.300	24.629	
685.400	31.619	
685.500	58.220	
685.600	44.242	
685.700	44.403	
685.800	40.361	
685.900	23.564	
686.000	43.017	
686.100	38.474	
686.200	46.521	
686.300	24.814	
686.400	52.102	
686.500	31.607	
686.600	47.552	
686.700	36.279	
686.800	33.962	
686.900	47.654	
687.000	33.643	
687.100	49.179	
687.200	32.025	
687.300	41.792	
687.400	27.828	
687.500	23.984	
687.600	48.600	
687.700	41.297	
687.800	52.841	
687.900	24.714	
688.000	32.356	
688.100	26.045	
688.200	49.677	
688.300	39.311	
688.400	37.690	
688.500	44.741	
688.600	35.921	
688.700	23.656	
688.800	40.281	
688.900	47.743	
689.000	39.398	
689.100	23.023	
689.200	18.526	
689.300	17.077	
689.400	53.439	
689.500	47.644	
689.600	40.620	
689.700	23.374	
689.800	53.280	
689.900	33.124	
690.000	24.360	
690.100	33.201	
690.200	48.473	
690.300	30.717	
690.400	23.926	
690.500	45.369	
690.600	47.264	
690.700	29.461	
690.800	39.915	
690.900	23.081	
691.000	29.407	
691.100	31.983	
691.200	38.932	
691.300	37.125	
691.400	8.436	
691.500	8.621	
691.600	18.704	
691.700	29.595	
691.800	43.374	
691.900	29.308	
692.000	28.435	
692.100	7.153	
692.200	2.355	
692.300	39.338	
692.400	25.554	
692.500	29.481	
692.600	15.937	
692.700	8.043	
692.800	6.545	
692.900	34.265	
693.000	9.084	
693.100	21.012	
693.200	17.185	
693.300	-7.226	
693.400	11.840	
693.500	24.084	
693.600	25.210	
693.700	-0.104	
693.800	12.727	
693.900	12.458	
694.000	12.777	
694.100	25.214	
694.200	30.207	
694.300	21.327	
694.400	1.533	
694.500	8.382	
694.600	33.548	
694.700	6.011	
694.800	13.296	
694.900	6.474	
695.000	-4.630	
695.100	11.653	
695.200	28.114	
695.300	35.056	
695.400	12.646	
695.500	-1.306	
695.600	-10.903	
695.700	-5.526	
695.800	11.665	
695.900	11.498	
696.000	18.762	
696.100	4.386	
696.200	13.710	
696.300	-2.699	
696.400	0.445	
696.500	0.163	
696.600	-2.094	
696.700	-3.555	
696.800	2.520	
696.900	15.575	
697.000	0.438	
697.100	2.211	
697.200	7.353	
697.300	1.839	
697.400	-4.165	
697.500	-2.183	
697.600	11.794	
697.700	-4.342	
697.800	7.070	
697.900	14.593	
698.000	-6.803	
698.100	28.535	
698.200	-4.610	
698.300	6.212	
698.400	-4.623	
698.500	10.945	
698.600	11.157	
698.700	14.029	
698.800	9.807	
698.900	-12.459	
699.000	20.923	
699.100	-5.960	
699.200	6.400	
699.300	-5.556	
699.400	-9.334	
699.500	0.339	
699.600	12.387	
699.700	-1.631	
699.800	2.868	
699.900	18.422	
700.000	2.315	
700.100	-3.105	
700.200	-0.463	
700.300	0.903	
700.400	2.798	
700.500	-0.276	
700.600	2.029	
700.700	-6.440	
700.800	4.472	
700.900	-4.918	
701.000	-6.392	
701.100	8.392	
701.200	-2.462	
701.300	5.539	
701.400	-3.393	
701.500	-1.703	
701.600	-9.003	
701.700	14.760	
701.800	8.971	
701.900	-26.888	
702.000	-4.897	
702.100	6.744	
702.200	-8.476	
702.300	12.822	
702.400	6.137	
702.500	-18.897	
702.600	-31.189	
702.700	14.902	
702.800	7.861	
702.900	-19.885	
703.000	21.092	
703.100	-16.225	
703.200	-5.015	
703.300	-3.874	
703.400	9.104	
703.500	0.221	
703.600	-6.251	
703.700	-7.623	
703.800	-16.959	
703.900	-9.658	
704.000	-11.781	
704.100	-9.121	
704.200	31.339	
704.300	-21.236	
704.400	-7.349	
704.500	-11.477	
704.600	-4.900	
704.700	-29.206	
704.800	-8.666	
704.900	5.790	
705.000	-18.828	
705.100	-2.184	
705.200	1.189	
705.300	-12.210	
705.400	-14.917	
705.500	-6.660	
705.600	0.740	
705.700	-2.407	
705.800	-4.269	
705.900	-16.182	
706.000	-5.067	
706.100	-19.429	
706.200	-0.899	
706.300	-17.401	
706.400	-7.025	
706.500	-7.634	
706.600	12.172	
706.700	-14.037	
706.800	1.164	
706.900	-14.292	
707.000	-4.112	
707.100	-17.538	
707.200	-20.155	
707.300	-22.427	
707.400	-24.589	
707.500	-5.925	
707.600	-3.347	
707.700	-1.034	
707.800	-39.319	
707.900	-12.364	
708.000	3.408	
708.100	-10.577	
708.200	-30.307	
708.300	-24.996	
708.400	-1.634	
708.500	-1.422	
708.600	-8.443	
708.700	-0.232	
708.800	-17.542	
708.900	-12.252	
709.000	-25.737	
709.100	-17.622	
709.200	4.643	
709.300	-8.367	
709.400	-18.675	
709.500	-18.288	
709.600	-25.678	
709.700	-21.136	
709.800	1.208	
709.900	-22.088	
710.000	-40.645	
710.100	-14.427	
710.200	1.552	
710.300	-8.187	
710.400	-20.113	
710.500	-15.529	
710.600	-28.774	
710.700	-15.705	
710.800	-7.230	
710.900	-12.724	
711.000	-16.254	
711.100	-2.360	
711.200	-24.855	
711.300	-40.792	
711.400	-5.522	
711.500	11.445	
711.600	-10.076	
711.700	-22.973	
711.800	-9.411	
711.900	-7.413	
712.000	-9.656	
712.100	-7.767	
712.200	-11.072	
712.300	-24.376	
712.400	-28.187	
712.500	-19.803	
712.600	-13.411	
712.700	9.412	
712.800	-31.781	
712.900	-16.414	
713.000	-15.681	
713.100	-22.541	
713.200	-8.082	
713.300	-23.565	
713.400	-11.585	
713.500	-11.186	
713.600	-9.661	
713.700	-12.736	
713.800	-1.681	
713.900	-4.697	
714.000	-27.155	
714.100	-31.201	
714.200	-4.406	
714.300	-11.537	
714.400	-44.467	
714.500	-20.843	
714.600	-14.778	
714.700	-51.377	
714.800	-2.067	
714.900	-1.725	
715.000	-17.221	
715.100	-25.054	
715.200	-22.795	
715.300	-25.826	
715.400	-12.952	
715.500	-6.665	
715.600	-12.645	
715.700	-16.453	
715.800	-19.081	
715.900	-18.229	
716.000	-27.690	
716.100	-9.230	
716.200	-9.416	
716.300	-6.846	
716.400	-13.412	
716.500	-29.306	
716.600	-33.524	
716.700	12.331	
716.800	-9.629	
716.900	-24.116	
717.000	-11.557	
717.100	-19.849	
717.200	-17.063	
717.300	-24.090	
717.400	-18.371	
717.500	-23.797	
717.600	-27.328	
717.700	-16.951	
717.800	-23.166	
717.900	-22.059	
718.000	-33.438	
718.100	-29.906	
718.200	-18.698	
718.300	-19.458	
718.400	-8.322	
718.500	-9.974	
718.600	-11.059	
718.700	-34.308	
718.800	-21.946	
718.900	-34.925	
719.000	1.519	
719.100	3.188	
719.200	-34.516	
719.300	-29.044	
719.400	-18.844	
719.500	-8.978	
719.600	-18.279	
719.700	-22.575	
719.800	-13.916	
719.900	-17.921	
720.000	-20.138	
720.100	-22.907	
720.200	-27.062	
720.300	-23.797	
720.400	-19.165	
720.500	-32.659	
720.600	-19.577	
720.700	-12.107	
720.800	0.406	
720.900	-4.289	
721.000	-39.792	
721.100	-28.959	
721.200	0.081	
721.300	-13.016	
721.400	-34.037	
721.500	-10.899	
721.600	-23.823	
721.700	-17.449	
721.800	-20.794	
721.900	-29.355	
722.000	-19.878	
722.100	-11.981	
722.200	-19.823	
722.300	-14.374	
722.400	-30.813	
722.500	2.904	
722.600	-24.709	
722.700	-16.972	
722.800	-11.490	
722.900	-28.367	
723.000	-33.153	
723.100	-26.745	
723.200	1.716	
723.300	-8.999	
723.400	-39.612	
723.500	-12.548	
723.600	-27.169	
723.700	-7.525	
723.800	-23.659	
723.900	-21.202	
724.000	-21.940	
724.100	-28.290	
724.200	-7.236	
724.300	-17.403	
724.400	-13.938	
724.500	-21.141	
724.600	-31.158	
724.700	15.332	
724.800	-10.791	
724.900	-15.770	
725.000	-27.922	
725.100	-23.042	
725.200	-29.154	
725.300	-16.652	
725.400	-10.460	
725.500	-5.718	
725.600	-12.320	
725.700	-23.360	
725.800	-32.856	
725.900	-24.645	
726.000	-14.164	
726.100	-19.412	
726.200	-19.150	
726.300	-22.772	
726.400	-25.049	
726.500	-4.791	
726.600	-14.888	
726.700	-6.178	
726.800	-16.315	
726.900	-25.112	
727.000	-13.193	
727.100	-16.408	
727.200	-19.027	
727.300	-1.228	
727.400	-23.297	
727.500	-17.771	
727.600	-5.938	
727.700	-26.740	
727.800	-4.552	
727.900	-28.498	
728.000	-20.406	
728.100	-19.352	
728.200	-0.275	
728.300	-12.598	
728.400	-31.259	
728.500	-18.915	
728.600	-36.765	
728.700	-25.010	
728.800	-7.116	
728.900	-2.892	
729.000	-7.748	
729.100	-28.740	
729.200	-25.327	
729.300	-31.515	
729.400	-10.528	
729.500	-13.887	
729.600	-11.418	
729.700	-24.454	
729.800	-23.502	
729.900	-5.469	
730.000	-12.281	
730.100	-8.355	
730.200	-25.757	
730.300	-6.188	
730.400	-30.186	
730.500	-9.654	
730.600	-11.380	
730.700	-15.992	
730.800	-11.313	
730.900	-22.344	
731.000	-18.285	
731.100	-24.355	
731.200	3.687	
731.300	-22.473	
731.400	-22.248	
731.500	-33.714	
731.600	-17.967	
731.700	-10.449	
731.800	-16.784	
731.900	-16.729	
732.000	-19.798	
732.100	-16.904	
732.200	-27.043	
732.300	-21.765	
732.400	-12.756	
732.500	-22.136	
732.600	-18.354	
732.700	-12.855	
732.800	0.482	
732.900	-7.792	
733.000	-3.922	
733.100	-33.327	
733.200	-23.128	
733.300	-3.115	
733.400	-16.154	
733.500	-26.556	
733.600	5.819	
733.700	-24.150	
733.800	-31.071	
733.900	-24.985	
734.000	-13.198	
734.100	-31.473	
734.200	-21.639	
734.300	-14.463	
734.400	-18.111	
734.500	-23.543	
734.600	-19.752	
734.700	-27.362	
734.800	-19.006	
734.900	-26.669	
735.000	1.484	
735.100	-27.312	
735.200	5.926	
735.300	-5.565	
735.400	5.862	
735.500	-27.562	
735.600	-34.844	
735.700	-13.850	
735.800	-8.377	
735.900	-20.382	
736.000	-18.835	
736.100	-24.535	
736.200	-25.187	
736.300	-24.601	
736.400	-16.871	
736.500	-13.782	
736.600	-16.277	
736.700	-22.193	
736.800	-23.822	
736.900	4.928	
737.000	-11.339	
737.100	-16.719	
737.200	-9.895	
737.300	-13.745	
737.400	-40.785	
737.500	-35.279	
737.600	-17.828	
737.700	-8.483	
737.800	-14.254	
737.900	-39.190	
738.000	-14.691	
738.100	-25.045	
738.200	-5.230	
738.300	-8.244	
738.400	-34.708	
738.500	-39.523	
738.600	-12.013	
738.700	-18.215	
738.800	-1.838	
738.900	-21.482	
739.000	-20.415	
739.100	-17.342	
739.200	-42.855	
739.300	-2.775	
739.400	-22.317	
739.500	-12.585	
739.600	-5.818	
739.700	-21.449	
739.800	-10.761	
739.900	-15.127	
740.000	-14.644	
740.100	-23.246	
740.200	-13.602	
740.300	-19.997	
740.400	-19.340	
740.500	-1.229	
740.600	-15.790	
740.700	-23.061	
740.800	-23.894	
740.900	-9.885	
741.000	-20.051	
741.100	-30.477	
741.200	-16.084	
741.300	-32.927	
741.400	-20.770	
741.500	-20.039	
741.600	-19.637	
741.700	-17.258	
741.800	-21.483	
741.900	-23.686	
742.000	-26.392	
742.100	-15.898	
742.200	-1.909	
742.300	-10.370	
742.400	-37.910	
742.500	-20.040	
742.600	-26.446	
742.700	-14.105	
742.800	-13.469	
742.900	-27.388	
743.000	-4.898	
743.100	-4.935	
743.200	-28.994	
743.300	-11.271	
743.400	0.235	
743.500	-11.714	
743.600	-19.032	
743.700	-27.037	
743.800	-10.973	
743.900	-22.142	
744.000	6.644	
744.100	-5.218	
744.200	-20.411	
744.300	-22.124	
744.400	-20.717	
744.500	-24.359	
744.600	-10.054	
744.700	-31.858	
744.800	-13.490	
744.900	-23.409	
745.000	-18.735	
745.100	-17.927	
745.200	-12.090	
745.300	-35.825	
745.400	-31.260	
745.500	-30.311	
745.600	-9.111	
745.700	-14.078	
745.800	-11.193	
745.900	-19.038	
746.000	-6.392	
746.100	-27.191	
746.200	-29.390	
746.300	-17.492	
746.400	-12.028	
746.500	-37.308	
746.600	-11.563	
746.700	-39.816	
746.800	-14.507	
746.900	-4.515	
747.000	-0.286	
747.100	-15.312	
747.200	-22.814	
747.300	-23.677	
747.400	-11.977	
747.500	-23.518	
747.600	-15.620	
747.700	-15.867	
747.800	-26.960	
747.900	-18.080	
748.000	-11.524	
748.100	-18.728	
748.200	-16.716	
748.300	-21.858	
748.400	-17.916	
748.500	-24.567	
748.600	-8.596	
748.700	-21.596	
748.800	-5.844	
748.900	-17.767	
749.000	-21.948	
749.100	-29.858	
749.200	-3.330	
749.300	-11.355	
749.400	-43.795	
749.500	-23.177	
749.600	-19.513	
749.700	-32.354	
749.800	-9.335	
749.900	-26.317	
750.000	-24.495	
750.100	-27.297	
750.200	-11.622	
750.300	-9.486	
750.400	-8.329	
750.500	-21.452	
750.600	-16.135	
750.700	-16.297	
750.800	-7.891	
750.900	-5.917	
751.000	-28.799	
751.100	-9.896	
751.200	-16.363	
751.300	-35.784	
751.400	-34.601	
751.500	-10.608	
751.600	-13.882	
751.700	-25.349	
751.800	-23.393	
751.900	-19.176	
752.000	-8.075	
752.100	-2.285	
752.200	-3.274	
752.300	-17.240	
752.400	-48.314	
752.500	-17.370	
752.600	-11.812	
752.700	-14.803	
752.800	-20.597	
752.900	-8.064	
753.000	-19.425	
753.100	-22.086	
753.200	-13.216	
753.300	-14.201	
753.400	-8.397	
753.500	-36.420	
753.600	-16.892	
753.700	-20.184	
753.800	-20.351	
753.900	-2.270	
754.000	-3.110	
754.100	-18.464	
754.200	-36.639	
754.300	-36.711	
754.400	-3.735	
754.500	-8.468	
754.600	-7.350	
754.700	1.862	
754.800	-15.778	
754.900	-23.889	
755.000	-15.780	
755.100	-24.423	
755.200	-6.330	
755.300	-12.168	
755.400	-20.838	
755.500	-16.222	
755.600	-18.999	
755.700	-18.732	
755.800	-33.317	
755.900	-29.314	
756.000	-19.297	
756.100	-0.022	
756.200	-22.301	
756.300	0.383	
756.400	-25.095	
756.500	-28.281	
756.600	-33.074	
756.700	-16.738	
756.800	-7.975	
756.900	-17.527	
757.000	-10.441	
757.100	-25.127	
757.200	-20.295	
757.300	-2.361	
757.400	-13.087	
757.500	-11.328	
757.600	-15.581	
757.700	-27.435	
757.800	-21.337	
757.900	-2.784	
758.000	-14.492	
758.100	-13.473	
758.200	-20.141	
758.300	-38.543	
758.400	3.756	
758.500	-4.751	
758.600	-28.408	
758.700	-14.651	
758.800	-24.530	
758.900	-14.915	
759.000	-16.745	
759.100	-16.941	
759.200	-5.450	
759.300	-19.393	
759.400	-9.886	
759.500	-5.236	
759.600	-29.825	
759.700	2.571	
759.800	-20.461	
759.900	-15.816	
760.000	-33.117	
760.100	-21.503	
760.200	-20.514	
760.300	12.610	
760.400	-18.866	
760.500	-31.130	
760.600	-19.814	
760.700	-26.118	
760.800	-28.551	
760.900	26.093	
761.000	-14.328	
761.100	-24.973	
761.200	7.130	
761.300	-35.831	
761.400	-17.819	
761.500	-11.631	
761.600	-15.482	
761.700	-13.893	
761.800	-46.772	
761.900	-26.792	
762.000	0.794	
762.100	-21.648	
762.200	-8.647	
762.300	-44.119	
762.400	-20.212	
762.500	-6.057	
762.600	-4.887	
762.700	-31.522	
762.800	-17.769	
762.900	-20.093	
763.000	-10.529	
763.100	-13.628	
763.200	-5.488	
763.300	-12.238	
763.400	-29.252	
763.500	-8.463	
763.600	-26.543	
763.700	-17.266	
763.800	-20.323	
763.900	1.888	
764.000	-21.230	
764.100	-9.333	
764.200	-24.297	
764.300	-20.128	
764.400	2.016	
764.500	-16.329	
764.600	-17.213	
764.700	-25.023	
764.800	-16.569	
764.900	-22.967	
765.000	-6.142	
765.100	-13.369	
765.200	-10.271	
765.300	-21.003	
765.400	-18.618	
765.500	-13.334	
765.600	4.816	
765.700	-16.410	
765.800	-27.218	
765.900	-15.425	
766.000	-16.476	
766.100	-15.922	
766.200	-17.378	
766.300	-12.664	
766.400	-10.548	
766.500	-20.307	
766.600	-17.551	
766.700	-12.971	
766.800	-8.120	
766.900	-32.980	
767.000	-11.631	
767.100	-17.723	
767.200	-13.169	
767.300	-3.022	
767.400	-13.222	
767.500	-10.433	
767.600	-13.481	
767.700	-23.384	
767.800	-28.524	
767.900	-23.232	
768.000	-15.524	
768.100	-16.714	
768.200	-33.027	
768.300	-12.487	
768.400	-24.206	
768.500	-16.401	
768.600	-10.259	
768.700	-5.104	
768.800	-4.338	
768.900	-18.242	
769.000	-9.702	
769.100	-10.081	
769.200	-22.254	
769.300	-7.577	
769.400	-37.780	
769.500	-29.098	
769.600	-14.941	
769.700	-6.465	
769.800	-20.509	
769.900	-2.550	
770.000	-8.497	
770.100	-6.102	
770.200	4.564	
770.300	-0.452	
770.400	-13.141	
770.500	-32.211	
770.600	-27.355	
770.700	-19.181	
770.800	-7.426	
770.900	-35.078	
771.000	-10.633	
771.100	-19.616	
771.200	-9.182	
771.300	-13.028	
771.400	-23.282	
771.500	-19.377	
771.600	-31.066	
771.700	0.816	
771.800	-25.786	
771.900	-4.124	
772.000	-19.768	
772.100	-2.525	
772.200	-14.617	
772.300	-11.331	
772.400	-27.425	
772.500	-10.557	
772.600	-8.008	
772.700	-18.399	
772.800	-23.991	
772.900	-22.541	
773.000	-23.375	
773.100	-8.069	
773.200	-1.365	
773.300	-17.281	
773.400	-21.169	
773.500	-13.506	
773.600	-30.844	
773.700	-6.227	
773.800	-9.210	
773.900	-25.680	
774.000	-14.550	
774.100	-2.267	
774.200	-6.842	
774.300	-3.960	
774.400	-20.984	
774.500	-6.023	
774.600	-17.787	
774.700	-10.542	
774.800	-12.855	
774.900	-8.073	
775.000	-36.624	
775.100	-4.089	
775.200	-20.753	
775.300	-11.092	
775.400	-20.623	
775.500	-14.948	
775.600	-18.205	
775.700	3.576	
775.800	-14.750	
775.900	-22.564	
776.000	-13.964	
776.100	5.487	
776.200	-25.825	
776.300	3.598	
776.400	-37.506	
776.500	-25.322	
776.600	-11.314	
776.700	-21.134	
776.800	-9.308	
776.900	-38.822	
777.000	-23.024	
777.100	-21.554	
777.200	-6.217	
777.300	-10.728	
777.400	1.451	
777.500	-27.692	
777.600	-13.199	
777.700	-19.176	
777.800	3.329	
777.900	-15.191	
778.000	-5.180	
778.100	-14.964	
778.200	-28.173	
778.300	-13.816	
778.400	-2.703	
778.500	-22.393	
778.600	-30.802	
778.700	-5.754	
778.800	-19.218	
778.900	-20.118	
779.000	-4.991	
779.100	-8.311	
779.200	-6.266	
779.300	-19.473	
779.400	-34.674	
779.500	-9.870	
779.600	-15.104	
779.700	-24.390	
779.800	-10.036	
779.900	-9.922	
780.000	-21.424	
780.100	4.483	
780.200	-19.140	
780.300	-4.498	
780.400	-25.188	
780.500	-16.770	
780.600	-22.172	
780.700	0.646	
780.800	26.602	
780.900	-8.382	
781.000	-3.116	
781.100	4.643	
781.200	-2.448	
781.300	27.257	
781.400	-15.712	
781.500	8.352	
781.600	-13.176	
781.700	10.390	
781.800	1.371	
781.900	-4.642	
782.000	-1.853	
782.100	-12.427	
782.200	-11.596	
782.300	9.663	
782.400	14.204	
782.500	12.657	
782.600	2.356	
782.700	-6.104	
782.800	-2.817	
782.900	14.283	
783.000	6.946	
783.100	12.450	
783.200	19.060	
783.300	3.083	
783.400	4.828	
783.500	2.685	
783.600	3.766	
783.700	17.414	
783.800	19.062	
783.900	-2.124	
784.000	-11.981	
784.100	-19.347	
784.200	35.327	
784.300	4.896	
784.400	2.284	
784.500	7.552	
784.600	3.466	
784.700	14.954	
784.800	17.368	
784.900	12.130	
785.000	8.127	
785.100	-7.015	
785.200	-27.988	
785.300	19.090	
785.400	22.721	
785.500	4.988	
785.600	-4.571	
785.700	-2.258	
785.800	-1.718	
785.900	-13.680	
786.000	16.399	
786.100	-8.839	
786.200	36.947	
786.300	17.497	
786.400	-5.832	
786.500	2.459	
786.600	24.817	
786.700	7.652	
786.800	12.607	
786.900	-13.911	
787.000	6.903	
787.100	17.911	
787.200	7.090	
787.300	12.391	
787.400	-7.947	
787.500	-6.560	
787.600	11.315	
787.700	30.196	
787.800	22.267	
787.900	3.681	
788.000	11.798	
788.100	-3.173	
788.200	-5.716	
788.300	5.258	
788.400	20.331	
788.500	12.121	
788.600	6.910	
788.700	-4.760	
788.800	19.478	
788.900	19.574	
789.000	8.797	
789.100	-8.934	
789.200	-3.449	
789.300	18.802	
789.400	25.001	
789.500	17.339	
789.600	9.260	
789.700	20.527	
789.800	1.524	
789.900	-5.743	
790.000	25.833	
790.100	13.405	
790.200	31.224	
790.300	9.356	
790.400	-7.254	
790.500	13.520	
790.600	10.302	
790.700	23.196	
790.800	10.804	
790.900	7.628	
791.000	14.055	
791.100	2.267	
791.200	20.455	
791.300	2.603	
791.400	14.096	
791.500	20.504	
791.600	-11.059	
791.700	16.454	
791.800	21.032	
791.900	17.118	
792.000	8.491	
792.100	-6.943	
792.200	30.157	
792.300	5.744	
792.400	36.030	
792.500	15.110	
792.600	-2.969	
792.700	7.693	
792.800	5.140	
792.900	21.046	
793.000	30.000	
793.100	26.931	
793.200	12.264	
793.300	12.686	
793.400	31.578	
793.500	15.561	
793.600	15.395	
793.700	30.821	
793.800	6.770	
793.900	7.705	
794.000	8.845	
794.100	26.286	
794.200	19.014	
794.300	18.498	
794.400	28.219	
794.500	10.610	
794.600	17.347	
794.700	30.444	
794.800	12.345	
794.900	27.851	
795.000	24.216	
795.100	40.482	
795.200	-3.965	
795.300	34.705	
795.400	34.032	
795.500	24.581	
795.600	15.070	
795.700	36.579	
795.800	12.260	
795.900	24.168	
796.000	40.271	
796.100	31.981	
796.200	12.160	
796.300	20.695	
796.400	36.606	
796.500	19.507	
796.600	35.645	
796.700	17.359	
796.800	10.107	
796.900	25.359	
797.000	31.618	
797.100	37.532	
797.200	37.391	
797.300	22.235	
797.400	30.808	
797.500	48.125	
797.600	31.613	
797.700	36.805	
797.800	28.153	
797.900	15.921	
798.000	20.750	
798.100	53.911	
798.200	33.921	
798.300	47.814	
798.400	30.507	
798.500	29.032	
798.600	32.805	
798.700	34.302	
798.800	32.345	
798.900	40.768	
799.000	29.852	
799.100	57.153	
799.200	28.061	
799.300	42.318	
799.400	41.146	
799.500	28.564	
799.600	42.522	
799.700	19.784	
799.800	31.289	
799.900	38.869	
800.000	31.565	
