time /s	I /nA	
0.100	-44.133	
0.200	-47.511	
0.300	-85.101	
0.400	-101.051	
0.500	-92.953	
0.600	-84.304	
0.700	-94.836	
0.800	-85.723	
0.900	-78.873	
1.000	-105.753	
1.100	-101.268	
1.200	-118.863	
1.300	-86.103	
1.400	-88.537	
1.500	-62.630	
1.600	-90.565	
1.700	-91.128	
1.800	-100.497	
1.900	-83.519	
2.000	-78.255	
2.100	-90.785	
2.200	-84.148	
2.300	-106.641	
2.400	-61.393	
2.500	-83.315	
2.600	-63.066	
2.700	-109.915	
2.800	-76.825	
2.900	-87.787	
3.000	-79.426	
3.100	-68.696	
3.200	-81.443	
3.300	-105.804	
3.400	-80.487	
3.500	-96.106	
3.600	-74.835	
3.700	-104.987	
3.800	-72.535	
3.900	-64.968	
4.000	-81.259	
4.100	-72.723	
4.200	-80.772	
4.300	-101.941	
4.400	-90.698	
4.500	-59.649	
4.600	-96.892	
4.700	-96.587	
4.800	-85.529	
4.900	-101.184	
5.000	-75.570	
5.100	-94.077	
5.200	-82.345	
5.300	-73.201	
5.400	-65.538	
5.500	-69.570	
5.600	-86.538	
5.700	-66.084	
5.800	-91.878	
5.900	-85.219	
6.000	-79.376	
6.100	-96.004	
6.200	-71.347	
6.300	-81.244	
6.400	-102.897	
6.500	-69.077	
6.600	-69.365	
6.700	-74.653	
6.800	-99.150	
6.900	-82.049	
7.000	-77.534	
7.100	-78.316	
7.200	-74.402	
7.300	-65.555	
7.400	-93.500	
7.500	-92.841	
7.600	-96.144	
7.700	-51.658	
7.800	-68.922	
7.900	-66.940	
8.000	-74.027	
8.100	-97.292	
8.200	-88.516	
8.300	-88.636	
8.400	-77.985	
8.500	-66.022	
8.600	-77.993	
8.700	-99.533	
8.800	-90.226	
8.900	-90.411	
9.000	-64.855	
9.100	-59.946	
9.200	-70.277	
9.300	-98.055	
9.400	-81.750	
9.500	-56.796	
9.600	-80.495	
9.700	-90.975	
9.800	-59.539	
9.900	-70.134	
10.000	-89.653	
10.100	-78.766	
10.200	-68.171	
10.300	-75.347	
10.400	-93.760	
10.500	-110.022	
10.600	-89.763	
10.700	-65.957	
10.800	-51.932	
10.900	-82.509	
11.000	-80.600	
11.100	-81.052	
11.200	-86.316	
11.300	-86.693	
11.400	-67.261	
11.500	-55.434	
11.600	-92.879	
11.700	-72.076	
11.800	-62.308	
11.900	-69.120	
12.000	-100.091	
12.100	-80.774	
12.200	-99.213	
12.300	-73.991	
12.400	-66.171	
12.500	-66.748	
12.600	-63.737	
12.700	-78.506	
12.800	-79.355	
12.900	-77.917	
13.000	-79.354	
13.100	-60.151	
13.200	-74.489	
13.300	-70.223	
13.400	-78.227	
13.500	-88.861	
13.600	-89.801	
13.700	-49.911	
13.800	-70.910	
13.900	-79.341	
14.000	-53.667	
14.100	-55.095	
14.200	-67.230	
14.300	-69.483	
14.400	-73.966	
14.500	-82.503	
14.600	-48.655	
14.700	-81.652	
14.800	-72.876	
14.900	-77.892	
15.000	-76.518	
15.100	-82.818	
15.200	-78.891	
15.300	-61.975	
15.400	-87.205	
15.500	-70.477	
15.600	-55.722	
15.700	-87.275	
15.800	-74.009	
15.900	-101.728	
16.000	-74.278	
16.100	-65.278	
16.200	-79.815	
16.300	-74.147	
16.400	-60.838	
16.500	-70.137	
16.600	-57.509	
16.700	-74.188	
16.800	-83.292	
16.900	-87.425	
17.000	-57.698	
17.100	-82.978	
17.200	-66.966	
17.300	-48.825	
17.400	-70.789	
17.500	-73.850	
17.600	-84.987	
17.700	-60.442	
17.800	-53.319	
17.900	-67.876	
18.000	-57.468	
18.100	-81.911	
18.200	-77.186	
18.300	-56.760	
18.400	-67.423	
18.500	-72.180	
18.600	-79.314	
18.700	-80.621	
18.800	-61.978	
18.900	-54.575	
19.000	-61.262	
19.100	-72.408	
19.200	-61.516	
19.300	-103.431	
19.400	-72.953	
19.500	-77.797	
19.600	-57.168	
19.700	-78.887	
19.800	-70.956	
19.900	-92.617	
20.000	-84.565	
20.100	-58.903	
20.200	-87.456	
20.300	-84.553	
20.400	-71.917	
20.500	-77.181	
20.600	-59.511	
20.700	-55.902	
20.800	-66.772	
20.900	-65.785	
21.000	-72.079	
21.100	-77.433	
21.200	-76.986	
21.300	-66.413	
21.400	-71.786	
21.500	-75.965	
21.600	-45.455	
21.700	-71.746	
21.800	-54.694	
21.900	-84.167	
22.000	-71.030	
22.100	-74.752	
22.200	-70.756	
22.300	-48.516	
22.400	-81.385	
22.500	-52.179	
22.600	-68.020	
22.700	-84.415	
22.800	-82.640	
22.900	-53.602	
23.000	-54.449	
23.100	-66.190	
23.200	-82.297	
23.300	-70.180	
23.400	-62.953	
23.500	-83.603	
23.600	-59.139	
23.700	-56.760	
23.800	-55.257	
23.900	-71.806	
24.000	-66.593	
24.100	-78.344	
24.200	-64.153	
24.300	-64.163	
24.400	-65.363	
24.500	-90.924	
24.600	-57.408	
24.700	-73.777	
24.800	-65.836	
24.900	-74.603	
25.000	-52.303	
25.100	-60.687	
25.200	-84.201	
25.300	-51.046	
25.400	-41.848	
25.500	-52.409	
25.600	-73.243	
25.700	-72.542	
25.800	-53.711	
25.900	-45.031	
26.000	-65.413	
26.100	-49.223	
26.200	-68.477	
26.300	-66.201	
26.400	-48.288	
26.500	-67.669	
26.600	-57.980	
26.700	-67.936	
26.800	-63.581	
26.900	-76.703	
27.000	-64.630	
27.100	-46.418	
27.200	-60.322	
27.300	-71.046	
27.400	-62.914	
27.500	-79.425	
27.600	-78.669	
27.700	-56.048	
27.800	-60.190	
27.900	-41.580	
28.000	-71.021	
28.100	-46.152	
28.200	-64.879	
28.300	-53.205	
28.400	-71.358	
28.500	-73.037	
28.600	-68.291	
28.700	-66.214	
28.800	-72.217	
28.900	-71.290	
29.000	-37.790	
29.100	-71.480	
29.200	-46.500	
29.300	-61.649	
29.400	-68.648	
29.500	-65.439	
29.600	-49.946	
29.700	-79.792	
29.800	-65.873	
29.900	-66.304	
30.000	-47.446	
30.100	-57.206	
30.200	-46.703	
30.300	-58.771	
30.400	-62.473	
30.500	-53.525	
30.600	-55.946	
30.700	-58.019	
30.800	-51.863	
30.900	-74.354	
31.000	-52.146	
31.100	-55.698	
31.200	-30.021	
31.300	-8.049	
31.400	-54.534	
31.500	-53.667	
31.600	-47.030	
31.700	-52.441	
31.800	-29.148	
31.900	-25.202	
32.000	-26.406	
32.100	-58.912	
32.200	-39.772	
32.300	-48.335	
32.400	-48.764	
32.500	-30.490	
32.600	-35.387	
32.700	-63.334	
32.800	-45.011	
32.900	-24.542	
33.000	-30.487	
33.100	-31.818	
33.200	-46.561	
33.300	-36.159	
33.400	-34.621	
33.500	-34.159	
33.600	-30.358	
33.700	-50.654	
33.800	-29.589	
33.900	-26.270	
34.000	-41.183	
34.100	-13.093	
34.200	-46.604	
34.300	-41.260	
34.400	-51.983	
34.500	-22.969	
34.600	3.648	
34.700	-32.596	
34.800	-17.336	
34.900	-53.039	
35.000	-42.247	
35.100	-18.231	
35.200	-12.316	
35.300	-19.675	
35.400	-18.163	
35.500	-25.023	
35.600	-28.642	
35.700	-34.109	
35.800	-24.470	
35.900	-17.829	
36.000	-7.301	
36.100	-37.104	
36.200	-40.401	
36.300	-15.157	
36.400	-23.060	
36.500	-14.371	
36.600	1.803	
36.700	-26.901	
36.800	-21.598	
36.900	-20.975	
37.000	0.574	
37.100	-6.640	
37.200	-13.450	
37.300	-13.949	
37.400	-25.906	
37.500	-33.207	
37.600	-11.999	
37.700	-22.451	
37.800	-0.097	
37.900	-36.064	
38.000	-15.774	
38.100	-15.936	
38.200	-22.100	
38.300	-21.804	
38.400	-21.145	
38.500	-16.454	
38.600	-6.997	
38.700	3.020	
38.800	-4.540	
38.900	10.649	
39.000	-25.773	
39.100	-29.509	
39.200	-50.057	
39.300	-15.685	
39.400	-10.958	
39.500	15.142	
39.600	-22.707	
39.700	-13.005	
39.800	-17.914	
39.900	-6.398	
40.000	1.928	
40.100	-12.557	
40.200	-17.724	
40.300	-20.687	
40.400	-25.950	
40.500	-14.432	
40.600	3.985	
40.700	-7.227	
40.800	-17.687	
40.900	-14.555	
41.000	-11.154	
41.100	-0.557	
41.200	-10.625	
41.300	-20.944	
41.400	-11.087	
41.500	-32.441	
41.600	-14.270	
41.700	-3.988	
41.800	6.522	
41.900	-18.137	
42.000	-33.971	
42.100	6.022	
42.200	1.669	
42.300	0.729	
42.400	7.817	
42.500	15.081	
42.600	-31.357	
42.700	-23.292	
42.800	0.124	
42.900	-5.676	
43.000	-16.742	
43.100	0.989	
43.200	-13.876	
43.300	-20.252	
43.400	2.984	
43.500	4.743	
43.600	-6.885	
43.700	-4.709	
43.800	-24.703	
43.900	-5.960	
44.000	-4.027	
44.100	4.715	
44.200	-7.773	
44.300	-21.550	
44.400	-10.200	
44.500	-8.753	
44.600	-28.483	
44.700	-6.243	
44.800	-18.014	
44.900	-0.119	
45.000	-16.565	
45.100	-3.706	
45.200	-13.216	
45.300	8.558	
45.400	-10.611	
45.500	2.969	
45.600	-36.094	
45.700	-10.857	
45.800	8.808	
45.900	5.393	
46.000	-13.720	
46.100	-24.993	
46.200	-14.631	
46.300	28.888	
46.400	1.516	
46.500	-4.097	
46.600	-5.036	
46.700	-17.207	
46.800	-18.417	
46.900	8.044	
47.000	-24.429	
47.100	-26.120	
47.200	-0.937	
47.300	-25.086	
47.400	0.518	
47.500	-21.241	
47.600	17.713	
47.700	-17.192	
47.800	-14.177	
47.900	-23.459	
48.000	-10.180	
48.100	-12.771	
48.200	13.695	
48.300	23.657	
48.400	-31.208	
48.500	-2.981	
48.600	-4.292	
48.700	4.286	
48.800	-40.622	
48.900	6.853	
49.000	-12.673	
49.100	-30.211	
49.200	-19.408	
49.300	10.695	
49.400	11.287	
49.500	4.423	
49.600	-4.950	
49.700	-9.597	
49.800	-8.452	
49.900	-12.010	
50.000	-6.330	
50.100	-6.937	
50.200	-15.924	
50.300	-24.105	
50.400	-9.586	
50.500	23.784	
50.600	-17.392	
50.700	-38.451	
50.800	-9.768	
50.900	-12.641	
51.000	-0.103	
51.100	12.256	
51.200	-7.440	
51.300	7.975	
51.400	-11.022	
51.500	-20.094	
51.600	-14.676	
51.700	26.979	
51.800	-1.567	
51.900	-28.213	
52.000	-12.018	
52.100	5.152	
52.200	-11.516	
52.300	0.672	
52.400	-22.130	
52.500	-6.114	
52.600	19.799	
52.700	-40.839	
52.800	14.510	
52.900	10.960	
53.000	-3.111	
53.100	-2.084	
53.200	16.740	
53.300	3.257	
53.400	-20.376	
53.500	-29.684	
53.600	1.997	
53.700	-6.153	
53.800	-8.785	
53.900	3.249	
54.000	-0.200	
54.100	0.027	
54.200	-9.526	
54.300	-16.534	
54.400	-4.189	
54.500	-15.384	
54.600	-1.279	
54.700	-14.443	
54.800	-7.670	
54.900	-19.565	
55.000	5.895	
55.100	-26.256	
55.200	-5.165	
55.300	14.406	
55.400	12.761	
55.500	0.230	
55.600	-13.555	
55.700	-20.791	
55.800	5.949	
55.900	7.514	
56.000	-1.802	
56.100	-16.734	
56.200	3.796	
56.300	7.533	
56.400	-22.259	
56.500	-6.006	
56.600	-7.949	
56.700	5.735	
56.800	-2.897	
56.900	-2.601	
57.000	3.871	
57.100	0.114	
57.200	-3.280	
57.300	-2.847	
57.400	2.960	
57.500	-0.376	
57.600	6.489	
57.700	9.152	
57.800	-11.092	
57.900	-20.343	
58.000	-21.948	
58.100	17.426	
58.200	9.267	
58.300	1.760	
58.400	-3.486	
58.500	-4.062	
58.600	0.196	
58.700	-1.252	
58.800	15.676	
58.900	-16.262	
59.000	-14.655	
59.100	-1.978	
59.200	25.814	
59.300	13.198	
59.400	-21.638	
59.500	-6.377	
59.600	-5.144	
59.700	-7.118	
59.800	-4.088	
59.900	11.822	
60.000	10.691	
60.100	11.743	
60.200	6.401	
60.300	1.023	
60.400	6.724	
60.500	11.034	
60.600	-10.983	
60.700	11.593	
60.800	-5.402	
60.900	-14.184	
61.000	23.552	
61.100	13.703	
61.200	6.934	
61.300	-6.896	
61.400	-12.702	
61.500	-8.919	
61.600	0.606	
61.700	14.208	
61.800	-5.253	
61.900	-2.910	
62.000	1.095	
62.100	8.305	
62.200	-0.817	
62.300	-2.235	
62.400	-26.181	
62.500	3.782	
62.600	25.660	
62.700	-0.854	
62.800	8.471	
62.900	5.694	
63.000	17.117	
63.100	-1.085	
63.200	-19.756	
63.300	-7.139	
63.400	-1.446	
63.500	-7.528	
63.600	-5.226	
63.700	1.152	
63.800	1.523	
63.900	8.586	
64.000	4.926	
64.100	3.105	
64.200	10.442	
64.300	1.344	
64.400	-4.774	
64.500	14.237	
64.600	16.938	
64.700	20.306	
64.800	5.369	
64.900	-2.603	
65.000	-2.397	
65.100	9.996	
65.200	18.404	
65.300	-7.666	
65.400	-6.753	
65.500	-6.406	
65.600	11.781	
65.700	9.496	
65.800	19.453	
65.900	-4.814	
66.000	-8.090	
66.100	-18.740	
66.200	8.256	
66.300	12.955	
66.400	9.693	
66.500	16.665	
66.600	-7.108	
66.700	14.298	
66.800	-6.270	
66.900	10.740	
67.000	18.187	
67.100	5.675	
67.200	-9.197	
67.300	-11.905	
67.400	11.313	
67.500	19.744	
67.600	9.541	
67.700	-7.707	
67.800	-5.228	
67.900	16.811	
68.000	16.577	
68.100	4.292	
68.200	0.678	
68.300	-14.722	
68.400	-12.695	
68.500	14.637	
68.600	14.852	
68.700	8.167	
68.800	15.182	
68.900	2.354	
69.000	-8.073	
69.100	-8.063	
69.200	19.918	
69.300	19.023	
69.400	-6.900	
69.500	6.473	
69.600	16.699	
69.700	-10.195	
69.800	37.400	
69.900	26.089	
70.000	-2.210	
70.100	-6.778	
70.200	-3.589	
70.300	-5.055	
70.400	-0.741	
70.500	11.429	
70.600	-21.739	
70.700	44.599	
70.800	16.354	
70.900	30.531	
71.000	19.365	
71.100	8.724	
71.200	15.136	
71.300	5.607	
71.400	9.997	
71.500	5.863	
71.600	33.521	
71.700	5.635	
71.800	3.699	
71.900	-9.955	
72.000	7.810	
72.100	11.842	
72.200	-12.138	
72.300	13.230	
72.400	22.322	
72.500	3.791	
72.600	-1.726	
72.700	11.579	
72.800	13.378	
72.900	17.691	
73.000	-13.666	
73.100	-16.885	
73.200	7.048	
73.300	47.027	
73.400	25.735	
73.500	7.742	
73.600	12.461	
73.700	-1.407	
73.800	5.529	
73.900	17.016	
74.000	12.571	
74.100	-8.359	
74.200	38.157	
74.300	23.623	
74.400	-0.216	
74.500	12.700	
74.600	23.297	
74.700	12.001	
74.800	5.589	
74.900	3.490	
75.000	8.611	
75.100	17.124	
75.200	14.525	
75.300	18.049	
75.400	7.039	
75.500	17.237	
75.600	17.647	
75.700	22.022	
75.800	6.613	
75.900	1.622	
76.000	-11.163	
76.100	12.591	
76.200	-5.584	
76.300	-7.062	
76.400	16.534	
76.500	55.052	
76.600	3.592	
76.700	23.079	
76.800	15.511	
76.900	16.559	
77.000	-7.151	
77.100	5.143	
77.200	21.911	
77.300	21.304	
77.400	4.603	
77.500	11.869	
77.600	-20.213	
77.700	16.605	
77.800	15.301	
77.900	3.390	
78.000	0.338	
78.100	12.769	
78.200	8.144	
78.300	14.552	
78.400	28.348	
78.500	13.970	
78.600	9.230	
78.700	33.849	
78.800	23.800	
78.900	6.394	
79.000	-0.758	
79.100	26.015	
79.200	24.445	
79.300	7.338	
79.400	3.113	
79.500	21.993	
79.600	-0.021	
79.700	38.609	
79.800	19.165	
79.900	-0.239	
80.000	9.175	
80.100	22.955	
80.200	-7.611	
80.300	21.466	
80.400	18.774	
80.500	14.517	
80.600	11.638	
80.700	4.939	
80.800	7.809	
80.900	24.155	
81.000	7.511	
81.100	14.926	
81.200	14.948	
81.300	22.087	
81.400	25.446	
81.500	22.225	
81.600	14.610	
81.700	28.519	
81.800	7.579	
81.900	9.154	
82.000	3.458	
82.100	12.509	
82.200	15.178	
82.300	20.162	
82.400	18.881	
82.500	23.191	
82.600	14.404	
82.700	16.008	
82.800	15.067	
82.900	8.811	
83.000	4.297	
83.100	-6.184	
83.200	4.323	
83.300	-2.248	
83.400	30.919	
83.500	21.898	
83.600	0.564	
83.700	-13.540	
83.800	17.666	
83.900	31.507	
84.000	19.866	
84.100	-12.082	
84.200	12.018	
84.300	13.983	
84.400	30.607	
84.500	26.930	
84.600	1.321	
84.700	13.007	
84.800	36.675	
84.900	28.820	
85.000	11.454	
85.100	39.388	
85.200	28.170	
85.300	10.661	
85.400	14.003	
85.500	18.928	
85.600	17.792	
85.700	21.578	
85.800	-0.733	
85.900	6.266	
86.000	15.891	
86.100	25.662	
86.200	41.248	
86.300	31.346	
86.400	6.177	
86.500	37.315	
86.600	13.834	
86.700	43.603	
86.800	41.564	
86.900	16.247	
87.000	1.087	
87.100	16.063	
87.200	-0.300	
87.300	24.538	
87.400	10.024	
87.500	7.728	
87.600	25.519	
87.700	28.775	
87.800	4.707	
87.900	31.467	
88.000	25.504	
88.100	32.311	
88.200	5.773	
88.300	-0.751	
88.400	30.758	
88.500	39.490	
88.600	30.429	
88.700	5.834	
88.800	1.555	
88.900	14.964	
89.000	42.080	
89.100	50.751	
89.200	24.928	
89.300	3.180	
89.400	-3.590	
89.500	27.627	
89.600	15.240	
89.700	7.931	
89.800	16.414	
89.900	11.071	
90.000	0.346	
90.100	-15.243	
90.200	17.661	
90.300	34.606	
90.400	9.120	
90.500	10.697	
90.600	-23.225	
90.700	13.187	
90.800	22.981	
90.900	0.560	
91.000	2.593	
91.100	-4.921	
91.200	-26.166	
91.300	14.445	
91.400	-18.120	
91.500	4.553	
91.600	-22.496	
91.700	-28.939	
91.800	-15.986	
91.900	-13.523	
92.000	8.485	
92.100	-34.636	
92.200	-2.289	
92.300	-24.772	
92.400	-6.186	
92.500	-2.097	
92.600	-22.440	
92.700	-4.012	
92.800	-2.381	
92.900	-23.944	
93.000	-16.922	
93.100	6.555	
93.200	-19.661	
93.300	-15.976	
93.400	-14.603	
93.500	-28.507	
93.600	-35.763	
93.700	-3.681	
93.800	-17.302	
93.900	9.708	
94.000	-31.504	
94.100	-43.561	
94.200	1.756	
94.300	-30.518	
94.400	-25.831	
94.500	-23.041	
94.600	-26.331	
94.700	-16.412	
94.800	-18.683	
94.900	-15.472	
95.000	-24.131	
95.100	4.456	
95.200	-34.890	
95.300	-41.257	
95.400	-15.961	
95.500	-14.327	
95.600	-25.231	
95.700	-29.534	
95.800	-16.400	
95.900	-33.577	
96.000	-6.595	
96.100	-2.865	
96.200	-27.093	
96.300	-20.242	
96.400	-22.889	
96.500	-31.632	
96.600	-34.106	
96.700	-11.332	
96.800	-23.525	
96.900	-31.361	
97.000	-34.100	
97.100	-41.727	
97.200	-9.692	
97.300	-11.919	
97.400	-26.638	
97.500	-34.158	
97.600	-26.956	
97.700	-14.728	
97.800	-17.468	
97.900	-14.033	
98.000	-8.555	
98.100	-27.982	
98.200	-30.695	
98.300	-33.016	
98.400	-14.904	
98.500	-36.483	
98.600	-5.782	
98.700	-25.219	
98.800	-16.682	
98.900	-42.371	
99.000	-14.405	
99.100	-30.402	
99.200	-6.275	
99.300	-19.057	
99.400	-25.839	
99.500	-27.778	
99.600	1.070	
99.700	-22.219	
99.800	-16.382	
99.900	-50.088	
100.000	-33.170	
100.100	-41.321	
100.200	-0.400	
100.300	-4.475	
100.400	-3.973	
100.500	-49.561	
100.600	-44.615	
100.700	-23.907	
100.800	-16.014	
100.900	-24.343	
101.000	-26.070	
101.100	-27.192	
101.200	-35.978	
101.300	-24.729	
101.400	-21.502	
101.500	-13.688	
101.600	-34.245	
101.700	-36.971	
101.800	-37.931	
101.900	-17.781	
102.000	-29.481	
102.100	-35.597	
102.200	-45.223	
102.300	-25.253	
102.400	-11.602	
102.500	-37.996	
102.600	-4.323	
102.700	-25.739	
102.800	-29.661	
102.900	-46.290	
103.000	-30.109	
103.100	-25.956	
103.200	-40.121	
103.300	-25.475	
103.400	-41.415	
103.500	-31.655	
103.600	-38.875	
103.700	-46.306	
103.800	-19.656	
103.900	-25.630	
104.000	-38.614	
104.100	-17.254	
104.200	-26.958	
104.300	-22.332	
104.400	-24.523	
104.500	-22.833	
104.600	-36.394	
104.700	-33.712	
104.800	-30.882	
104.900	-20.276	
105.000	-35.081	
105.100	-39.113	
105.200	-29.986	
105.300	-50.931	
105.400	-19.896	
105.500	-19.069	
105.600	-26.690	
105.700	-34.454	
105.800	-37.479	
105.900	-30.183	
106.000	-23.045	
106.100	-31.889	
106.200	-12.413	
106.300	-29.376	
106.400	-39.290	
106.500	-32.695	
106.600	-43.122	
106.700	-41.324	
106.800	-28.684	
106.900	-56.854	
107.000	-21.938	
107.100	-56.291	
107.200	-31.286	
107.300	-23.599	
107.400	-16.512	
107.500	-28.964	
107.600	-21.397	
107.700	-27.687	
107.800	-36.311	
107.900	-24.968	
108.000	-50.426	
108.100	-68.102	
108.200	-25.495	
108.300	-25.594	
108.400	-30.624	
108.500	-32.892	
108.600	-36.262	
108.700	-53.719	
108.800	-22.286	
108.900	-38.556	
109.000	-17.824	
109.100	-34.083	
109.200	-46.919	
109.300	-46.570	
109.400	-16.682	
109.500	-32.548	
109.600	-0.543	
109.700	-47.391	
109.800	-55.053	
109.900	-18.246	
110.000	-44.306	
110.100	-19.264	
110.200	-47.161	
110.300	-44.568	
110.400	-24.265	
110.500	-64.124	
110.600	-16.689	
110.700	-15.570	
110.800	-41.250	
110.900	-52.300	
111.000	-31.434	
111.100	-48.943	
111.200	-41.170	
111.300	-2.528	
111.400	-40.271	
111.500	-51.935	
111.600	-58.715	
111.700	-55.802	
111.800	-32.816	
111.900	-35.053	
112.000	-11.886	
112.100	-50.935	
112.200	-33.814	
112.300	-29.361	
112.400	-35.094	
112.500	-32.000	
112.600	-35.891	
112.700	-49.057	
112.800	-52.917	
112.900	-40.236	
113.000	-28.556	
113.100	-30.494	
113.200	-41.690	
113.300	-36.096	
113.400	-33.825	
113.500	-23.044	
113.600	-34.048	
113.700	-42.321	
113.800	-25.755	
113.900	-24.634	
114.000	-54.391	
114.100	-32.822	
114.200	-39.887	
114.300	-36.736	
114.400	-74.712	
114.500	-50.102	
114.600	-24.766	
114.700	-26.074	
114.800	-30.714	
114.900	-32.678	
115.000	-34.540	
115.100	-46.918	
115.200	-44.037	
115.300	-29.369	
115.400	-41.841	
115.500	-34.697	
115.600	-47.952	
115.700	-26.384	
115.800	-35.564	
115.900	-41.892	
116.000	-31.942	
116.100	-14.362	
116.200	-44.265	
116.300	-46.659	
116.400	-46.028	
116.500	-35.325	
116.600	-38.522	
116.700	-32.909	
116.800	-59.380	
116.900	-32.559	
117.000	-22.557	
117.100	-40.247	
117.200	-29.298	
117.300	-41.002	
117.400	-35.757	
117.500	-61.134	
117.600	-27.903	
117.700	-50.358	
117.800	-30.023	
117.900	-52.107	
118.000	-25.692	
118.100	-40.317	
118.200	-21.840	
118.300	-28.248	
118.400	-34.710	
118.500	-45.986	
118.600	-52.272	
118.700	-7.906	
118.800	-32.125	
118.900	-60.612	
119.000	-45.881	
119.100	-19.000	
119.200	-34.368	
119.300	-40.499	
119.400	-32.200	
119.500	-33.904	
119.600	-33.860	
119.700	-42.482	
119.800	-29.750	
119.900	-38.061	
120.000	-46.618	
120.100	-36.756	
120.200	-41.007	
120.300	-44.870	
120.400	-68.872	
120.500	-47.202	
120.600	-2.787	
120.700	-20.202	
120.800	-43.681	
120.900	-63.287	
121.000	-62.290	
121.100	-31.433	
121.200	-33.255	
121.300	-60.780	
121.400	-34.028	
121.500	-39.042	
121.600	-50.996	
121.700	-58.009	
121.800	-18.787	
121.900	-33.929	
122.000	-48.726	
122.100	-56.206	
122.200	-33.273	
122.300	-41.588	
122.400	-30.162	
122.500	-20.432	
122.600	-34.280	
122.700	-34.857	
122.800	-43.523	
122.900	-42.435	
123.000	-28.044	
123.100	-33.170	
123.200	-42.893	
123.300	-65.565	
123.400	-39.227	
123.500	-12.591	
123.600	-46.669	
123.700	-27.234	
123.800	-27.710	
123.900	-67.692	
124.000	-24.765	
124.100	-33.270	
124.200	-13.625	
124.300	-37.356	
124.400	-53.665	
124.500	-55.964	
124.600	-23.413	
124.700	-13.628	
124.800	-50.600	
124.900	-39.226	
125.000	-57.627	
125.100	-56.461	
125.200	-51.918	
125.300	-35.845	
125.400	-23.596	
125.500	-50.688	
125.600	-48.433	
125.700	-51.567	
125.800	-32.106	
125.900	-25.934	
126.000	-38.279	
126.100	-46.119	
126.200	-42.864	
126.300	-38.300	
126.400	-33.641	
126.500	-22.167	
126.600	-15.018	
126.700	-48.927	
126.800	-46.423	
126.900	-10.646	
127.000	-23.201	
127.100	-32.766	
127.200	-45.283	
127.300	-25.314	
127.400	-24.126	
127.500	-32.357	
127.600	-41.217	
127.700	-16.799	
127.800	-36.712	
127.900	-32.735	
128.000	-43.720	
128.100	-44.673	
128.200	-37.573	
128.300	-36.108	
128.400	-37.632	
128.500	-56.615	
128.600	-36.071	
128.700	-60.032	
128.800	-42.078	
128.900	-47.186	
129.000	-23.327	
129.100	-48.899	
129.200	-58.089	
129.300	-44.440	
129.400	-22.174	
129.500	-5.832	
129.600	-40.970	
129.700	-33.467	
129.800	-61.124	
129.900	-40.169	
130.000	-19.053	
130.100	-22.309	
130.200	-37.769	
130.300	-55.739	
130.400	-30.856	
130.500	-54.918	
130.600	-20.806	
130.700	-21.290	
130.800	-27.444	
130.900	-28.233	
131.000	-32.964	
131.100	-33.793	
131.200	-37.053	
131.300	-34.857	
131.400	-40.418	
131.500	-35.030	
131.600	-47.792	
131.700	-13.098	
131.800	-28.974	
131.900	-37.666	
132.000	-24.821	
132.100	-31.951	
132.200	-33.535	
132.300	-44.967	
132.400	-16.876	
132.500	-26.439	
132.600	-30.028	
132.700	-68.449	
132.800	-52.822	
132.900	-16.653	
133.000	-9.733	
133.100	-23.450	
133.200	-52.290	
133.300	-66.463	
133.400	-31.176	
133.500	26.730	
133.600	-26.031	
133.700	-48.248	
133.800	-38.590	
133.900	-53.441	
134.000	-41.001	
134.100	-22.662	
134.200	-44.317	
134.300	-14.740	
134.400	-31.434	
134.500	-41.135	
134.600	-37.560	
134.700	-68.762	
134.800	-21.395	
134.900	-44.902	
135.000	-37.835	
135.100	-29.667	
135.200	-51.267	
135.300	-10.689	
135.400	-49.922	
135.500	-42.113	
135.600	-28.754	
135.700	-61.213	
135.800	-10.412	
135.900	-20.378	
136.000	-27.198	
136.100	-45.215	
136.200	-56.378	
136.300	-40.546	
136.400	-32.388	
136.500	-17.814	
136.600	-30.329	
136.700	-39.278	
136.800	-44.008	
136.900	-27.882	
137.000	-17.549	
137.100	-45.759	
137.200	-24.187	
137.300	-44.037	
137.400	-45.118	
137.500	-34.706	
137.600	-28.664	
137.700	-39.648	
137.800	-31.691	
137.900	-30.158	
138.000	-48.664	
138.100	-21.114	
138.200	-34.626	
138.300	-42.202	
138.400	-51.585	
138.500	-39.358	
138.600	-14.571	
138.700	-21.943	
138.800	-38.755	
138.900	-41.944	
139.000	-38.474	
139.100	-56.139	
139.200	-30.106	
139.300	-31.108	
139.400	-19.653	
139.500	-31.507	
139.600	-42.173	
139.700	-35.993	
139.800	-54.487	
139.900	-41.107	
140.000	-17.636	
140.100	-34.538	
140.200	-27.812	
140.300	-34.138	
140.400	-46.000	
140.500	-23.225	
140.600	-19.945	
140.700	-29.557	
140.800	-33.700	
140.900	-50.016	
141.000	-43.299	
141.100	-26.975	
141.200	-30.382	
141.300	-65.824	
141.400	-49.708	
141.500	-37.341	
141.600	-33.395	
141.700	-44.774	
141.800	-25.005	
141.900	-7.680	
142.000	-35.355	
142.100	-38.639	
142.200	-68.577	
142.300	-26.894	
142.400	-26.599	
142.500	-70.884	
142.600	-27.874	
142.700	-59.490	
142.800	-22.121	
142.900	-32.854	
143.000	-23.525	
143.100	-35.207	
143.200	-53.889	
143.300	-40.220	
143.400	-21.432	
143.500	-25.576	
143.600	-39.485	
143.700	-38.476	
143.800	-27.369	
143.900	-25.051	
144.000	-33.297	
144.100	-20.810	
144.200	-24.043	
144.300	-41.470	
144.400	-53.749	
144.500	-19.421	
144.600	-42.474	
144.700	-37.046	
144.800	-28.637	
144.900	-37.621	
145.000	-26.373	
145.100	-31.278	
145.200	-37.066	
145.300	-19.200	
145.400	-26.681	
145.500	-41.761	
145.600	-37.371	
145.700	-39.394	
145.800	-11.208	
145.900	-33.290	
146.000	-56.214	
146.100	-46.429	
146.200	-56.674	
146.300	-27.457	
146.400	-26.089	
146.500	-18.450	
146.600	-47.896	
146.700	-39.526	
146.800	-3.924	
146.900	-29.450	
147.000	-29.281	
147.100	-29.407	
147.200	-55.137	
147.300	-32.077	
147.400	-34.930	
147.500	-36.529	
147.600	-38.952	
147.700	-11.265	
147.800	-34.933	
147.900	-33.202	
148.000	-33.998	
148.100	-25.345	
148.200	-17.533	
148.300	-18.847	
148.400	-22.786	
148.500	-36.197	
148.600	-46.787	
148.700	-19.900	
148.800	-24.204	
148.900	-54.201	
149.000	-33.647	
149.100	-23.002	
149.200	-41.935	
149.300	-41.312	
149.400	-37.958	
149.500	-46.142	
149.600	-28.517	
149.700	-28.383	
149.800	-38.407	
149.900	-19.395	
150.000	-51.392	
150.100	-46.552	
150.200	-41.613	
150.300	-32.957	
150.400	-29.184	
150.500	-16.437	
150.600	-29.143	
150.700	-54.675	
150.800	-54.530	
150.900	-46.803	
151.000	-37.352	
151.100	-27.750	
151.200	-20.347	
151.300	-34.073	
151.400	-33.533	
151.500	-18.860	
151.600	-38.794	
151.700	-33.487	
151.800	-27.059	
151.900	-24.181	
152.000	-51.473	
152.100	-41.709	
152.200	-39.685	
152.300	-0.848	
152.400	-10.113	
152.500	-35.991	
152.600	-32.459	
152.700	-40.481	
152.800	-25.770	
152.900	-20.582	
153.000	-28.971	
153.100	-25.373	
153.200	-23.913	
153.300	-63.265	
153.400	-23.097	
153.500	-25.023	
153.600	-45.690	
153.700	-36.860	
153.800	-28.559	
153.900	-15.480	
154.000	-36.214	
154.100	-45.049	
154.200	0.436	
154.300	-46.510	
154.400	-36.341	
154.500	-37.817	
154.600	-21.379	
154.700	-23.772	
154.800	-49.580	
154.900	-37.042	
155.000	-29.247	
155.100	-28.677	
155.200	-36.554	
155.300	-37.696	
155.400	-49.510	
155.500	-39.207	
155.600	-39.975	
155.700	-43.002	
155.800	-10.442	
155.900	-37.512	
156.000	-36.842	
156.100	-35.343	
156.200	-28.591	
156.300	-13.623	
156.400	-47.753	
156.500	-30.256	
156.600	-29.121	
156.700	-41.442	
156.800	-34.390	
156.900	-35.881	
157.000	-25.846	
157.100	-28.858	
157.200	-35.050	
157.300	-32.139	
157.400	-22.917	
157.500	-41.025	
157.600	-27.965	
157.700	-33.022	
157.800	-42.610	
157.900	-53.694	
158.000	-54.710	
158.100	-21.800	
158.200	-17.934	
158.300	-38.390	
158.400	-40.654	
158.500	-49.462	
158.600	-34.624	
158.700	-10.145	
158.800	-33.161	
158.900	-22.886	
159.000	-29.074	
159.100	-28.050	
159.200	-37.621	
159.300	-41.699	
159.400	-41.260	
159.500	-31.385	
159.600	-28.245	
159.700	-20.413	
159.800	-30.451	
159.900	-32.367	
160.000	-34.807	
160.100	-62.283	
160.200	-3.477	
160.300	-21.310	
160.400	-29.491	
160.500	-38.428	
160.600	-29.363	
160.700	-47.801	
160.800	-18.270	
160.900	-44.949	
161.000	-8.549	
161.100	-22.706	
161.200	-38.013	
161.300	-41.691	
161.400	-43.379	
161.500	-57.331	
161.600	-28.941	
161.700	-20.479	
161.800	-34.260	
161.900	-24.953	
162.000	-47.817	
162.100	-34.914	
162.200	14.692	
162.300	-29.874	
162.400	-44.914	
162.500	-26.425	
162.600	-19.282	
162.700	-32.196	
162.800	-39.157	
162.900	-20.895	
163.000	-19.055	
163.100	-43.210	
163.200	-56.462	
163.300	3.647	
163.400	-46.666	
163.500	-19.490	
163.600	-30.034	
163.700	-45.029	
163.800	-26.838	
163.900	-37.996	
164.000	-18.056	
164.100	-39.901	
164.200	-34.422	
164.300	-7.200	
164.400	-47.687	
164.500	-31.775	
164.600	-9.066	
164.700	-30.853	
164.800	-35.714	
164.900	-30.717	
165.000	-20.376	
165.100	-16.578	
165.200	-16.920	
165.300	-45.370	
165.400	-24.114	
165.500	-49.218	
165.600	-33.588	
165.700	-12.578	
165.800	-21.248	
165.900	-57.233	
166.000	-45.489	
166.100	-37.502	
166.200	-26.507	
166.300	-26.722	
166.400	-25.446	
166.500	-46.566	
166.600	-37.522	
166.700	-34.510	
166.800	-7.811	
166.900	-29.189	
167.000	-22.808	
167.100	-10.010	
167.200	-60.303	
167.300	-43.462	
167.400	-25.245	
167.500	-39.274	
167.600	-24.970	
167.700	-31.954	
167.800	-26.431	
167.900	-34.815	
168.000	-24.056	
168.100	-16.614	
168.200	-51.816	
168.300	-41.266	
168.400	-43.715	
168.500	-24.796	
168.600	-13.546	
168.700	-38.503	
168.800	-23.791	
168.900	-28.108	
169.000	-26.435	
169.100	-15.179	
169.200	-38.116	
169.300	-30.200	
169.400	-15.093	
169.500	-36.730	
169.600	-43.522	
169.700	-31.998	
169.800	-16.706	
169.900	-34.073	
170.000	-16.745	
170.100	-34.520	
170.200	-44.306	
170.300	-17.371	
170.400	-25.932	
170.500	-26.486	
170.600	-35.342	
170.700	-43.546	
170.800	-37.096	
170.900	-44.419	
171.000	-25.617	
171.100	-17.989	
171.200	-43.427	
171.300	-50.839	
171.400	-19.836	
171.500	-41.399	
171.600	-34.312	
171.700	-39.985	
171.800	-38.250	
171.900	-37.489	
172.000	3.264	
172.100	-9.736	
172.200	-45.370	
172.300	-35.777	
172.400	-45.303	
172.500	-42.042	
172.600	-45.429	
172.700	-11.715	
172.800	-17.576	
172.900	-47.313	
173.000	-26.555	
173.100	-42.125	
173.200	-12.996	
173.300	-22.992	
173.400	-26.000	
173.500	-29.840	
173.600	-38.260	
173.700	-49.387	
173.800	-22.071	
173.900	-25.672	
174.000	-24.561	
174.100	-33.464	
174.200	-44.316	
174.300	-41.543	
174.400	-7.655	
174.500	-32.697	
174.600	-31.383	
174.700	-45.623	
174.800	-22.043	
174.900	-23.368	
175.000	-22.054	
175.100	-28.020	
175.200	-40.128	
175.300	-31.758	
175.400	-21.401	
175.500	-26.284	
175.600	-20.312	
175.700	-32.163	
175.800	-47.056	
175.900	-39.163	
176.000	-37.703	
176.100	-17.562	
176.200	-24.859	
176.300	-24.937	
176.400	-32.247	
176.500	-20.802	
176.600	-62.727	
176.700	9.297	
176.800	-10.197	
176.900	-20.017	
177.000	-49.627	
177.100	-21.848	
177.200	-50.193	
177.300	-19.393	
177.400	-24.777	
177.500	-8.369	
177.600	-37.765	
177.700	-48.046	
177.800	-37.695	
177.900	-32.776	
178.000	-23.805	
178.100	-32.891	
178.200	-19.095	
178.300	-43.400	
178.400	-21.026	
178.500	-10.607	
178.600	-12.534	
178.700	-18.845	
178.800	-29.324	
178.900	-41.377	
179.000	-21.242	
179.100	-19.960	
179.200	-12.658	
179.300	-41.181	
179.400	-46.070	
179.500	-47.360	
179.600	-31.044	
179.700	-9.851	
179.800	-13.338	
179.900	-9.927	
180.000	-31.489	
180.100	-18.990	
180.200	-36.029	
180.300	-29.551	
180.400	-1.331	
180.500	-29.735	
180.600	-31.338	
180.700	-2.258	
180.800	-10.069	
180.900	-4.738	
181.000	-2.486	
181.100	-16.619	
181.200	-19.615	
181.300	-19.660	
181.400	12.024	
181.500	-5.108	
181.600	0.005	
181.700	0.806	
181.800	-11.228	
181.900	-16.543	
182.000	6.696	
182.100	-8.361	
182.200	-0.924	
182.300	-9.139	
182.400	-6.761	
182.500	-3.111	
182.600	-2.159	
182.700	-1.059	
182.800	14.199	
182.900	2.019	
183.000	4.210	
183.100	12.187	
183.200	16.985	
183.300	-1.615	
183.400	0.606	
183.500	-9.106	
183.600	-17.643	
183.700	-1.991	
183.800	4.762	
183.900	-3.257	
184.000	15.808	
184.100	7.150	
184.200	-8.679	
184.300	-2.220	
184.400	11.533	
184.500	9.593	
184.600	-5.483	
184.700	-11.068	
184.800	-5.464	
184.900	9.839	
185.000	-12.812	
185.100	-15.631	
185.200	25.048	
185.300	-10.454	
185.400	-9.917	
185.500	16.594	
185.600	14.669	
185.700	4.288	
185.800	-18.570	
185.900	-6.139	
186.000	9.902	
186.100	31.592	
186.200	6.425	
186.300	-10.766	
186.400	1.699	
186.500	1.917	
186.600	-4.120	
186.700	3.830	
186.800	0.155	
186.900	21.092	
187.000	-1.415	
187.100	-15.534	
187.200	9.855	
187.300	21.648	
187.400	0.934	
187.500	11.568	
187.600	2.514	
187.700	-23.789	
187.800	15.896	
187.900	13.376	
188.000	11.158	
188.100	15.695	
188.200	-5.756	
188.300	9.410	
188.400	16.740	
188.500	33.283	
188.600	7.578	
188.700	-3.137	
188.800	-7.484	
188.900	22.827	
189.000	17.888	
189.100	39.327	
189.200	6.268	
189.300	15.444	
189.400	2.875	
189.500	0.810	
189.600	26.115	
189.700	36.424	
189.800	5.028	
189.900	11.263	
190.000	17.717	
190.100	17.459	
190.200	-0.924	
190.300	22.744	
190.400	23.991	
190.500	15.746	
190.600	20.573	
190.700	1.792	
190.800	25.800	
190.900	21.231	
191.000	29.249	
191.100	14.438	
191.200	28.296	
191.300	15.653	
191.400	24.828	
191.500	7.048	
191.600	18.511	
191.700	20.862	
191.800	21.453	
191.900	9.390	
192.000	26.866	
192.100	43.788	
192.200	27.706	
192.300	7.865	
192.400	6.687	
192.500	46.291	
192.600	58.804	
192.700	3.009	
192.800	37.266	
192.900	14.376	
193.000	33.143	
193.100	45.955	
193.200	42.041	
193.300	30.742	
193.400	41.777	
193.500	14.435	
193.600	27.538	
193.700	41.960	
193.800	45.807	
193.900	20.538	
194.000	21.983	
194.100	31.224	
194.200	40.045	
194.300	28.601	
194.400	52.114	
194.500	46.378	
194.600	50.107	
194.700	13.749	
194.800	29.692	
194.900	46.683	
195.000	64.523	
195.100	34.892	
195.200	44.155	
195.300	10.772	
195.400	41.844	
195.500	51.640	
195.600	50.047	
195.700	42.704	
195.800	25.962	
195.900	33.329	
196.000	15.649	
196.100	36.126	
196.200	47.040	
196.300	49.739	
196.400	21.100	
196.500	57.461	
196.600	52.293	
196.700	52.104	
196.800	54.859	
196.900	30.314	
197.000	43.019	
197.100	38.142	
197.200	35.546	
197.300	52.373	
197.400	46.507	
197.500	38.822	
197.600	48.139	
197.700	41.009	
197.800	55.916	
197.900	24.004	
198.000	52.600	
198.100	41.528	
198.200	27.711	
198.300	44.272	
198.400	35.908	
198.500	27.550	
198.600	44.195	
198.700	45.009	
198.800	54.789	
198.900	49.058	
199.000	56.031	
199.100	45.408	
199.200	39.475	
199.300	21.364	
199.400	36.824	
199.500	37.334	
199.600	35.652	
199.700	50.574	
199.800	49.463	
199.900	40.574	
200.000	42.894	
200.100	48.613	
200.200	37.331	
200.300	39.360	
200.400	53.331	
200.500	36.292	
200.600	39.929	
200.700	25.642	
200.800	58.934	
200.900	44.367	
201.000	27.829	
201.100	49.909	
201.200	35.352	
201.300	44.091	
201.400	49.297	
201.500	61.008	
201.600	52.207	
201.700	26.080	
201.800	22.129	
201.900	29.238	
202.000	67.507	
202.100	46.112	
202.200	54.979	
202.300	44.453	
202.400	53.684	
202.500	50.295	
202.600	56.071	
202.700	59.896	
202.800	40.446	
202.900	24.857	
203.000	37.066	
203.100	45.702	
203.200	45.913	
203.300	39.893	
203.400	22.331	
203.500	49.809	
203.600	39.662	
203.700	48.641	
203.800	41.613	
203.900	42.520	
204.000	39.999	
204.100	55.772	
204.200	35.894	
204.300	37.761	
204.400	52.603	
204.500	55.054	
204.600	39.540	
204.700	36.833	
204.800	41.680	
204.900	45.060	
205.000	73.472	
205.100	55.469	
205.200	29.883	
205.300	53.570	
205.400	44.231	
205.500	51.244	
205.600	60.467	
205.700	38.248	
205.800	44.621	
205.900	52.153	
206.000	61.933	
206.100	43.708	
206.200	40.863	
206.300	53.053	
206.400	51.538	
206.500	54.505	
206.600	35.368	
206.700	45.067	
206.800	42.879	
206.900	16.901	
207.000	37.416	
207.100	38.382	
207.200	65.455	
207.300	55.066	
207.400	33.458	
207.500	21.115	
207.600	32.119	
207.700	31.578	
207.800	73.931	
207.900	50.449	
208.000	52.155	
208.100	25.955	
208.200	26.879	
208.300	42.000	
208.400	53.036	
208.500	67.147	
208.600	38.634	
208.700	22.947	
208.800	32.079	
208.900	45.995	
209.000	54.151	
209.100	61.879	
209.200	51.336	
209.300	37.270	
209.400	20.043	
209.500	22.349	
209.600	55.349	
209.700	50.162	
209.800	24.637	
209.900	46.729	
210.000	72.938	
210.100	54.831	
210.200	39.941	
210.300	59.746	
210.400	44.815	
210.500	22.682	
210.600	29.363	
210.700	47.561	
210.800	50.576	
210.900	66.106	
211.000	38.550	
211.100	37.707	
211.200	23.316	
211.300	40.076	
211.400	79.520	
211.500	47.751	
211.600	40.697	
211.700	27.179	
211.800	50.138	
211.900	48.723	
212.000	40.367	
212.100	44.425	
212.200	28.438	
212.300	54.700	
212.400	42.583	
212.500	60.059	
212.600	46.274	
212.700	38.165	
212.800	26.121	
212.900	51.343	
213.000	34.784	
213.100	44.355	
213.200	45.189	
213.300	40.531	
213.400	34.425	
213.500	56.230	
213.600	54.754	
213.700	58.066	
213.800	59.033	
213.900	24.466	
214.000	41.238	
214.100	32.033	
214.200	43.917	
214.300	58.109	
214.400	62.536	
214.500	34.796	
214.600	18.924	
214.700	32.491	
214.800	50.705	
214.900	56.083	
215.000	69.107	
215.100	11.579	
215.200	35.497	
215.300	49.678	
215.400	54.324	
215.500	59.870	
215.600	23.241	
215.700	33.701	
215.800	43.033	
215.900	63.072	
216.000	61.526	
216.100	45.744	
216.200	45.018	
216.300	31.396	
216.400	56.849	
216.500	54.507	
216.600	47.270	
216.700	33.568	
216.800	37.995	
216.900	42.450	
217.000	46.965	
217.100	43.068	
217.200	35.799	
217.300	46.726	
217.400	45.660	
217.500	65.724	
217.600	48.152	
217.700	65.672	
217.800	31.469	
217.900	29.917	
218.000	41.148	
218.100	45.100	
218.200	23.736	
218.300	49.059	
218.400	38.063	
218.500	37.372	
218.600	26.455	
218.700	57.999	
218.800	58.097	
218.900	52.828	
219.000	48.062	
219.100	48.346	
219.200	56.818	
219.300	52.007	
219.400	42.346	
219.500	67.493	
219.600	47.055	
219.700	43.069	
219.800	45.523	
219.900	41.936	
220.000	35.708	
220.100	49.789	
220.200	37.186	
220.300	72.612	
220.400	16.677	
220.500	53.411	
220.600	55.773	
220.700	45.907	
220.800	62.196	
220.900	47.244	
221.000	41.894	
221.100	26.212	
221.200	43.491	
221.300	50.432	
221.400	49.521	
221.500	34.290	
221.600	63.124	
221.700	41.966	
221.800	47.764	
221.900	52.368	
222.000	57.685	
222.100	33.126	
222.200	42.175	
222.300	34.491	
222.400	47.411	
222.500	62.664	
222.600	58.187	
222.700	33.832	
222.800	38.692	
222.900	26.997	
223.000	43.643	
223.100	39.171	
223.200	49.561	
223.300	48.993	
223.400	19.881	
223.500	40.763	
223.600	51.750	
223.700	76.081	
223.800	53.137	
223.900	48.603	
224.000	39.491	
224.100	38.295	
224.200	27.926	
224.300	62.147	
224.400	41.955	
224.500	47.265	
224.600	36.379	
224.700	32.613	
224.800	61.692	
224.900	36.477	
225.000	58.477	
225.100	46.954	
225.200	49.079	
225.300	37.367	
225.400	46.056	
225.500	31.886	
225.600	29.117	
225.700	42.943	
225.800	33.844	
225.900	49.775	
226.000	62.487	
226.100	33.136	
226.200	40.778	
226.300	45.545	
226.400	64.962	
226.500	45.505	
226.600	56.548	
226.700	46.377	
226.800	32.512	
226.900	44.392	
227.000	45.610	
227.100	20.892	
227.200	51.660	
227.300	38.942	
227.400	28.595	
227.500	25.730	
227.600	50.200	
227.700	46.340	
227.800	66.596	
227.900	43.920	
228.000	45.554	
228.100	35.146	
228.200	51.271	
228.300	32.251	
228.400	49.683	
228.500	26.542	
228.600	34.919	
228.700	54.053	
228.800	50.212	
228.900	56.215	
229.000	56.632	
229.100	42.734	
229.200	40.283	
229.300	37.552	
229.400	30.449	
229.500	52.852	
229.600	28.321	
229.700	62.809	
229.800	21.663	
229.900	26.112	
230.000	52.479	
230.100	49.085	
230.200	46.877	
230.300	63.525	
230.400	40.775	
230.500	24.223	
230.600	61.611	
230.700	55.524	
230.800	47.281	
230.900	41.269	
231.000	52.873	
231.100	29.609	
231.200	50.400	
231.300	44.648	
231.400	52.786	
231.500	56.209	
231.600	33.999	
231.700	43.706	
231.800	47.899	
231.900	28.097	
232.000	54.934	
232.100	50.602	
232.200	41.020	
232.300	52.881	
232.400	44.001	
232.500	52.794	
232.600	42.670	
232.700	44.075	
232.800	29.027	
232.900	37.104	
233.000	47.013	
233.100	64.916	
233.200	17.927	
233.300	29.210	
233.400	51.824	
233.500	39.249	
233.600	50.292	
233.700	49.954	
233.800	35.758	
233.900	19.292	
234.000	48.551	
234.100	51.616	
234.200	62.101	
234.300	39.133	
234.400	48.588	
234.500	40.843	
234.600	49.731	
234.700	39.484	
234.800	50.627	
234.900	52.121	
235.000	44.103	
235.100	41.323	
235.200	36.684	
235.300	54.360	
235.400	58.891	
235.500	30.599	
235.600	16.037	
235.700	29.712	
235.800	59.262	
235.900	67.346	
236.000	31.307	
236.100	60.251	
236.200	38.528	
236.300	28.271	
236.400	35.054	
236.500	53.418	
236.600	38.357	
236.700	39.144	
236.800	45.483	
236.900	51.476	
237.000	33.515	
237.100	41.419	
237.200	31.465	
237.300	47.998	
237.400	21.850	
237.500	46.722	
237.600	67.296	
237.700	76.316	
237.800	36.628	
237.900	40.734	
238.000	25.985	
238.100	47.778	
238.200	45.698	
238.300	41.470	
238.400	52.226	
238.500	50.919	
238.600	25.351	
238.700	37.678	
238.800	43.437	
238.900	57.265	
239.000	44.746	
239.100	56.525	
239.200	55.577	
239.300	41.430	
239.400	20.633	
239.500	52.189	
239.600	23.469	
239.700	32.386	
239.800	40.910	
239.900	41.883	
240.000	62.103	
240.100	55.675	
240.200	48.458	
240.300	24.104	
240.400	40.845	
240.500	30.894	
240.600	21.340	
240.700	59.333	
240.800	15.957	
240.900	3.100	
241.000	12.867	
241.100	19.510	
241.200	30.489	
241.300	21.237	
241.400	24.248	
241.500	20.698	
241.600	-0.893	
241.700	22.584	
241.800	26.703	
241.900	20.687	
242.000	2.546	
242.100	34.843	
242.200	9.871	
242.300	14.342	
242.400	23.216	
242.500	25.067	
242.600	5.915	
242.700	1.966	
242.800	-10.900	
242.900	9.746	
243.000	23.630	
243.100	-0.976	
243.200	-22.398	
243.300	3.159	
243.400	11.280	
243.500	18.551	
243.600	7.246	
243.700	-7.416	
243.800	11.312	
243.900	-7.389	
244.000	1.761	
244.100	5.191	
244.200	9.565	
244.300	19.219	
244.400	-15.917	
244.500	3.443	
244.600	-15.918	
244.700	17.477	
244.800	-24.567	
244.900	-20.512	
245.000	-17.785	
245.100	-12.297	
245.200	-9.684	
245.300	5.484	
245.400	3.371	
245.500	-12.029	
245.600	1.463	
245.700	10.680	
245.800	-26.088	
245.900	-5.422	
246.000	-9.404	
246.100	-5.897	
246.200	-24.606	
246.300	0.634	
246.400	2.531	
246.500	-13.888	
246.600	-6.168	
246.700	-11.836	
246.800	-12.867	
246.900	7.896	
247.000	-16.742	
247.100	-0.865	
247.200	-6.706	
247.300	-23.428	
247.400	2.844	
247.500	-15.111	
247.600	-14.672	
247.700	-3.561	
247.800	0.875	
247.900	-36.488	
248.000	7.242	
248.100	-10.678	
248.200	-4.348	
248.300	-7.635	
248.400	-15.738	
248.500	-25.097	
248.600	-7.662	
248.700	-25.897	
248.800	-8.255	
248.900	-15.517	
249.000	-11.862	
249.100	-8.556	
249.200	-1.320	
249.300	-14.857	
249.400	-5.997	
249.500	-23.109	
249.600	8.711	
249.700	-9.419	
249.800	-22.274	
249.900	15.910	
250.000	-9.522	
250.100	-18.508	
250.200	-22.247	
250.300	-5.858	
250.400	-3.140	
250.500	-12.992	
250.600	-30.161	
250.700	4.484	
250.800	-2.531	
250.900	-24.788	
251.000	-22.256	
251.100	-10.919	
251.200	-4.618	
251.300	7.911	
251.400	-17.439	
251.500	-46.301	
251.600	-6.854	
251.700	-6.674	
251.800	9.103	
251.900	-1.766	
252.000	-32.342	
252.100	-4.722	
252.200	-6.858	
252.300	-26.758	
252.400	-4.514	
252.500	-3.510	
252.600	-31.847	
252.700	-13.985	
252.800	-15.248	
252.900	-11.413	
253.000	0.242	
253.100	-39.789	
253.200	-15.629	
253.300	-17.494	
253.400	-39.384	
253.500	-31.061	
253.600	8.210	
253.700	-21.659	
253.800	-13.674	
253.900	-21.273	
254.000	-1.834	
254.100	-11.679	
254.200	-3.395	
254.300	-40.688	
254.400	-41.153	
254.500	-31.578	
254.600	-3.141	
254.700	-29.824	
254.800	-20.334	
254.900	-17.542	
255.000	-24.627	
255.100	-15.506	
255.200	-14.370	
255.300	-21.380	
255.400	-12.307	
255.500	-12.442	
255.600	-34.070	
255.700	-15.771	
255.800	-21.155	
255.900	-14.411	
256.000	-16.428	
256.100	-35.838	
256.200	-17.375	
256.300	-8.881	
256.400	-9.491	
256.500	-7.610	
256.600	-48.030	
256.700	-46.453	
256.800	-21.863	
256.900	-26.416	
257.000	11.190	
257.100	-30.051	
257.200	-18.648	
257.300	-19.466	
257.400	-36.643	
257.500	-22.898	
257.600	-13.291	
257.700	-32.794	
257.800	-40.844	
257.900	-32.996	
258.000	-26.868	
258.100	-2.436	
258.200	-7.374	
258.300	-31.861	
258.400	-25.549	
258.500	-26.115	
258.600	-42.650	
258.700	-35.576	
258.800	-25.412	
258.900	-20.407	
259.000	-47.093	
259.100	-3.063	
259.200	-16.103	
259.300	-30.089	
259.400	-25.799	
259.500	-21.666	
259.600	-37.187	
259.700	-22.548	
259.800	-19.884	
259.900	-16.397	
260.000	-27.291	
260.100	-28.033	
260.200	-34.707	
260.300	-27.085	
260.400	-13.009	
260.500	-22.809	
260.600	-33.534	
260.700	-19.825	
260.800	-43.824	
260.900	-39.397	
261.000	-9.786	
261.100	-9.943	
261.200	-33.473	
261.300	-37.938	
261.400	-27.340	
261.500	-30.601	
261.600	-17.993	
261.700	-31.789	
261.800	-20.744	
261.900	-21.956	
262.000	-24.506	
262.100	-65.072	
262.200	-12.047	
262.300	1.608	
262.400	-27.033	
262.500	-55.113	
262.600	-26.561	
262.700	-35.634	
262.800	-28.499	
262.900	-31.077	
263.000	-21.793	
263.100	-40.951	
263.200	-36.796	
263.300	-62.735	
263.400	-26.118	
263.500	-19.490	
263.600	-32.285	
263.700	-52.615	
263.800	-44.910	
263.900	-17.342	
264.000	-47.443	
264.100	-34.339	
264.200	-24.323	
264.300	-38.841	
264.400	-46.355	
264.500	-18.892	
264.600	-44.817	
264.700	-10.295	
264.800	-37.392	
264.900	-45.845	
265.000	-47.507	
265.100	-18.641	
265.200	-15.844	
265.300	-30.459	
265.400	-35.156	
265.500	-43.447	
265.600	-30.035	
265.700	-34.058	
265.800	-17.615	
265.900	-30.827	
266.000	-36.337	
266.100	-28.787	
266.200	-36.548	
266.300	-16.067	
266.400	-51.515	
266.500	-40.684	
266.600	-30.633	
266.700	-17.503	
266.800	-10.623	
266.900	-19.360	
267.000	-22.343	
267.100	-43.452	
267.200	-35.374	
267.300	-50.779	
267.400	-29.808	
267.500	-20.531	
267.600	-7.174	
267.700	-35.966	
267.800	-27.277	
267.900	-53.684	
268.000	-32.638	
268.100	-35.181	
268.200	-9.139	
268.300	-39.024	
268.400	-26.882	
268.500	-44.481	
268.600	-25.342	
268.700	-25.071	
268.800	-20.333	
268.900	-50.466	
269.000	-26.952	
269.100	-65.107	
269.200	-19.854	
269.300	-13.467	
269.400	-46.791	
269.500	-40.132	
269.600	-33.181	
269.700	-27.501	
269.800	-41.170	
269.900	-35.977	
270.000	-12.407	
270.100	-35.412	
270.200	-69.890	
270.300	-40.891	
270.400	-7.668	
270.500	-21.348	
270.600	-22.415	
270.700	-29.557	
270.800	-40.806	
270.900	-28.345	
271.000	-41.322	
271.100	-19.059	
271.200	-14.429	
271.300	-59.141	
271.400	-32.239	
271.500	-12.996	
271.600	-33.716	
271.700	-29.847	
271.800	-40.320	
271.900	-26.205	
272.000	-49.605	
272.100	-44.067	
272.200	-5.253	
272.300	-23.308	
272.400	-42.754	
272.500	-35.088	
272.600	-43.488	
272.700	-37.855	
272.800	-21.111	
272.900	-35.069	
273.000	-41.028	
273.100	-43.991	
273.200	-44.348	
273.300	-20.807	
273.400	-30.534	
273.500	-29.157	
273.600	-31.243	
273.700	-39.692	
273.800	-34.374	
273.900	-26.284	
274.000	-0.054	
274.100	-29.668	
274.200	-31.165	
274.300	-26.865	
274.400	-49.215	
274.500	-27.938	
274.600	-26.026	
274.700	-15.731	
274.800	-49.052	
274.900	-17.334	
275.000	-32.080	
275.100	-21.864	
275.200	-37.288	
275.300	-7.483	
275.400	-41.685	
275.500	-31.054	
275.600	-25.175	
275.700	-27.523	
275.800	-6.489	
275.900	-46.287	
276.000	-49.452	
276.100	-40.219	
276.200	-27.365	
276.300	-8.629	
276.400	-19.428	
276.500	-25.265	
276.600	-33.522	
276.700	-32.900	
276.800	-43.238	
276.900	-31.516	
277.000	-25.260	
277.100	-50.522	
277.200	-8.858	
277.300	-8.796	
277.400	-29.249	
277.500	-39.370	
277.600	-7.446	
277.700	-52.507	
277.800	-16.268	
277.900	-44.617	
278.000	-42.751	
278.100	-25.628	
278.200	-44.661	
278.300	-36.857	
278.400	-30.787	
278.500	-20.268	
278.600	-21.799	
278.700	-41.668	
278.800	-19.713	
278.900	-56.847	
279.000	-41.394	
279.100	-22.554	
279.200	-25.308	
279.300	-20.355	
279.400	-39.912	
279.500	-31.930	
279.600	-24.300	
279.700	-15.725	
279.800	-20.932	
279.900	-24.488	
280.000	-51.542	
280.100	-27.509	
280.200	-25.530	
280.300	-26.384	
280.400	-25.012	
280.500	-29.138	
280.600	-32.749	
280.700	-35.035	
280.800	-36.088	
280.900	-21.038	
281.000	-6.687	
281.100	-27.917	
281.200	-18.211	
281.300	-29.333	
281.400	-21.295	
281.500	-36.381	
281.600	-27.265	
281.700	-13.674	
281.800	-42.779	
281.900	-38.721	
282.000	-30.677	
282.100	-33.350	
282.200	-28.955	
282.300	-38.715	
282.400	-46.076	
282.500	-45.250	
282.600	-34.943	
282.700	-27.276	
282.800	-32.507	
282.900	-12.396	
283.000	-20.139	
283.100	-38.863	
283.200	-44.125	
283.300	-13.166	
283.400	-24.273	
283.500	-28.481	
283.600	-39.598	
283.700	-39.957	
283.800	-29.449	
283.900	-23.285	
284.000	-23.245	
284.100	-17.820	
284.200	-23.008	
284.300	-42.759	
284.400	-11.263	
284.500	-33.963	
284.600	-26.910	
284.700	-46.175	
284.800	-29.045	
284.900	-44.451	
285.000	-12.852	
285.100	-40.766	
285.200	-27.413	
285.300	-2.651	
285.400	-34.695	
285.500	-37.507	
285.600	-39.295	
285.700	-21.729	
285.800	-36.487	
285.900	-14.851	
286.000	-17.912	
286.100	-36.569	
286.200	-15.170	
286.300	-61.207	
286.400	-30.096	
286.500	-9.075	
286.600	-36.702	
286.700	-22.486	
286.800	-23.448	
286.900	-3.305	
287.000	-28.434	
287.100	-38.113	
287.200	-30.111	
287.300	-41.816	
287.400	-25.076	
287.500	-23.338	
287.600	-30.357	
287.700	-46.011	
287.800	-42.724	
287.900	-5.508	
288.000	-16.080	
288.100	-40.798	
288.200	-18.027	
288.300	-43.532	
288.400	-25.420	
288.500	-47.147	
288.600	-13.586	
288.700	-17.267	
288.800	-35.890	
288.900	-15.712	
289.000	-42.230	
289.100	-15.207	
289.200	-36.537	
289.300	-31.459	
289.400	-35.779	
289.500	-19.288	
289.600	-35.977	
289.700	-41.506	
289.800	-14.941	
289.900	-22.540	
290.000	-28.732	
290.100	-37.853	
290.200	-37.258	
290.300	-15.714	
290.400	-15.230	
290.500	-35.594	
290.600	-28.897	
290.700	-32.334	
290.800	-24.123	
290.900	-40.369	
291.000	-7.585	
291.100	-18.405	
291.200	-41.819	
291.300	-34.682	
291.400	-27.915	
291.500	-30.175	
291.600	-28.344	
291.700	-30.551	
291.800	-27.608	
291.900	-53.801	
292.000	-14.010	
292.100	-18.364	
292.200	-27.387	
292.300	-23.401	
292.400	-43.629	
292.500	-31.453	
292.600	-15.855	
292.700	-10.964	
292.800	-25.333	
292.900	-18.058	
293.000	-32.332	
293.100	-34.575	
293.200	-39.394	
293.300	-22.434	
293.400	-26.240	
293.500	-29.160	
293.600	-30.561	
293.700	-27.001	
293.800	-22.810	
293.900	-34.688	
294.000	-32.364	
294.100	-35.380	
294.200	-25.051	
294.300	-21.304	
294.400	-46.504	
294.500	-38.482	
294.600	-23.030	
294.700	-34.690	
294.800	-34.098	
294.900	-33.957	
295.000	-22.262	
295.100	-19.809	
295.200	-26.886	
295.300	-21.443	
295.400	-27.176	
295.500	-35.770	
295.600	-20.054	
295.700	-33.808	
295.800	-24.162	
295.900	-52.354	
296.000	-31.408	
296.100	-17.314	
296.200	-34.313	
296.300	-37.114	
296.400	-29.216	
296.500	-51.773	
296.600	-46.770	
296.700	-2.521	
296.800	-10.864	
296.900	-18.791	
297.000	-35.599	
297.100	-26.113	
297.200	-21.233	
297.300	-18.888	
297.400	-17.890	
297.500	-16.148	
297.600	-38.594	
297.700	-12.204	
297.800	-35.538	
297.900	-30.250	
298.000	-28.986	
298.100	-8.920	
298.200	-24.400	
298.300	-34.103	
298.400	-58.658	
298.500	-21.078	
298.600	-12.094	
298.700	-38.683	
298.800	-51.679	
298.900	-10.406	
299.000	-27.654	
299.100	-18.973	
299.200	-21.081	
299.300	-53.220	
299.400	-14.233	
299.500	-27.527	
299.600	-19.830	
299.700	-20.692	
299.800	-36.574	
299.900	-28.204	
300.000	-40.932	
300.100	-32.106	
300.200	-27.944	
300.300	-31.472	
300.400	-31.404	
300.500	-26.947	
300.600	-33.613	
300.700	-35.441	
300.800	-30.995	
300.900	-25.040	
301.000	-34.987	
301.100	-27.616	
301.200	-42.693	
301.300	-2.867	
301.400	-31.534	
301.500	-12.923	
301.600	-10.554	
301.700	-35.249	
301.800	-16.946	
301.900	-40.377	
302.000	-19.935	
302.100	-13.821	
302.200	-18.780	
302.300	-35.485	
302.400	-25.355	
302.500	-29.640	
302.600	-16.510	
302.700	-15.163	
302.800	-19.442	
302.900	-38.213	
303.000	-32.805	
303.100	-21.155	
303.200	-34.623	
303.300	-31.256	
303.400	-12.879	
303.500	-28.422	
303.600	-19.569	
303.700	-41.577	
303.800	-21.694	
303.900	-27.664	
304.000	-34.996	
304.100	-24.772	
304.200	-40.490	
304.300	-10.556	
304.400	1.751	
304.500	7.658	
304.600	-38.390	
304.700	-16.660	
304.800	-22.418	
304.900	-32.167	
305.000	-13.514	
305.100	-3.236	
305.200	-28.338	
305.300	-11.650	
305.400	-26.133	
305.500	-32.945	
305.600	-13.639	
305.700	-26.962	
305.800	-28.274	
305.900	-35.530	
306.000	-2.261	
306.100	-29.412	
306.200	-25.349	
306.300	-12.147	
306.400	-24.605	
306.500	-34.964	
306.600	-41.470	
306.700	-8.528	
306.800	-10.684	
306.900	-26.745	
307.000	-53.755	
307.100	-39.618	
307.200	-22.407	
307.300	2.357	
307.400	-15.211	
307.500	-29.749	
307.600	-20.776	
307.700	-43.845	
307.800	-37.962	
307.900	3.828	
308.000	-22.915	
308.100	-14.702	
308.200	-33.847	
308.300	-23.940	
308.400	-22.939	
308.500	-5.034	
308.600	-23.261	
308.700	-51.022	
308.800	-26.980	
308.900	-28.797	
309.000	-32.735	
309.100	-20.015	
309.200	-16.039	
309.300	-57.248	
309.400	-33.392	
309.500	-37.250	
309.600	-13.512	
309.700	-27.293	
309.800	2.984	
309.900	-42.354	
310.000	-41.210	
310.100	-14.462	
310.200	-29.330	
310.300	-10.807	
310.400	-27.089	
310.500	-33.300	
310.600	-8.009	
310.700	-31.413	
310.800	-32.755	
310.900	-11.644	
311.000	-22.588	
311.100	-50.769	
311.200	-31.839	
311.300	-35.170	
311.400	-17.660	
311.500	-6.626	
311.600	-47.294	
311.700	-9.201	
311.800	-30.109	
311.900	-8.436	
312.000	-19.919	
312.100	-19.099	
312.200	-38.450	
312.300	-16.042	
312.400	-8.288	
312.500	0.117	
312.600	-15.871	
312.700	-15.952	
312.800	-25.644	
312.900	-35.199	
313.000	-10.856	
313.100	-41.133	
313.200	-9.456	
313.300	-30.640	
313.400	-27.911	
313.500	-37.850	
313.600	-22.422	
313.700	-21.842	
313.800	-25.636	
313.900	-33.121	
314.000	-21.980	
314.100	-30.051	
314.200	-31.458	
314.300	-1.991	
314.400	-13.648	
314.500	0.727	
314.600	-24.180	
314.700	-46.834	
314.800	-10.717	
314.900	-36.891	
315.000	-22.090	
315.100	-33.096	
315.200	-30.289	
315.300	-12.865	
315.400	-21.544	
315.500	-23.688	
315.600	-15.676	
315.700	-16.679	
315.800	-38.876	
315.900	-26.747	
316.000	-12.604	
316.100	-4.928	
316.200	-15.515	
316.300	-19.944	
316.400	-21.956	
316.500	-14.428	
316.600	-25.060	
316.700	-25.077	
316.800	-30.960	
316.900	-46.982	
317.000	-28.982	
317.100	-3.655	
317.200	-18.101	
317.300	-29.277	
317.400	-10.022	
317.500	-19.462	
317.600	-5.913	
317.700	-43.051	
317.800	-9.321	
317.900	-19.668	
318.000	-36.753	
318.100	-24.568	
318.200	-18.148	
318.300	-41.287	
318.400	-36.620	
318.500	-7.357	
318.600	-24.920	
318.700	-46.667	
318.800	-12.693	
318.900	-26.498	
319.000	-19.965	
319.100	2.368	
319.200	-16.677	
319.300	-34.990	
319.400	-9.417	
319.500	-1.769	
319.600	-26.760	
319.700	-13.493	
319.800	-33.080	
319.900	-42.399	
320.000	-22.953	
320.100	-22.358	
320.200	-15.958	
320.300	-28.198	
320.400	-21.164	
320.500	-33.291	
320.600	-35.574	
320.700	-33.435	
320.800	4.119	
320.900	-18.090	
321.000	-39.699	
321.100	-27.363	
321.200	-28.454	
321.300	-30.550	
321.400	-2.610	
321.500	-10.192	
321.600	-31.873	
321.700	-25.178	
321.800	-33.971	
321.900	-13.096	
322.000	-19.690	
322.100	-15.009	
322.200	-31.443	
322.300	-19.202	
322.400	-26.900	
322.500	-21.026	
322.600	-26.643	
322.700	-4.304	
322.800	-21.160	
322.900	-31.442	
323.000	-22.004	
323.100	-23.809	
323.200	-26.133	
323.300	-24.379	
323.400	-36.371	
323.500	-45.673	
323.600	-18.544	
323.700	-28.673	
323.800	-5.306	
323.900	-20.481	
324.000	-22.862	
324.100	-35.262	
324.200	-12.441	
324.300	-18.854	
324.400	-16.794	
324.500	-24.325	
324.600	-22.714	
324.700	-25.828	
324.800	-20.180	
324.900	-19.681	
325.000	-12.097	
325.100	-11.277	
325.200	-12.447	
325.300	-16.025	
325.400	-33.841	
325.500	-6.355	
325.600	-43.276	
325.700	-21.052	
325.800	-12.013	
325.900	-32.347	
326.000	-3.963	
326.100	-5.099	
326.200	-43.316	
326.300	-39.354	
326.400	-15.968	
326.500	-18.169	
326.600	-23.330	
326.700	-17.360	
326.800	-33.286	
326.900	-26.552	
327.000	-21.542	
327.100	-9.978	
327.200	-9.881	
327.300	3.957	
327.400	-45.243	
327.500	-36.677	
327.600	-20.319	
327.700	-5.048	
327.800	-18.467	
327.900	-32.428	
328.000	-34.309	
328.100	-21.140	
328.200	-28.641	
328.300	-21.087	
328.400	-16.857	
328.500	-21.438	
328.600	-28.394	
328.700	-38.139	
328.800	-29.577	
328.900	-22.378	
329.000	-18.107	
329.100	-33.211	
329.200	-24.960	
329.300	-9.626	
329.400	-17.779	
329.500	-25.979	
329.600	-13.896	
329.700	0.892	
329.800	-30.676	
329.900	-22.250	
330.000	-26.131	
330.100	-23.020	
330.200	-0.571	
330.300	-16.550	
330.400	-33.476	
330.500	-25.239	
330.600	-8.148	
330.700	-5.098	
330.800	11.161	
330.900	-8.137	
331.000	-14.562	
331.100	-4.961	
331.200	4.526	
331.300	-2.036	
331.400	15.036	
331.500	5.565	
331.600	-17.424	
331.700	-3.110	
331.800	16.076	
331.900	21.232	
332.000	-6.963	
332.100	31.449	
332.200	-1.229	
332.300	18.502	
332.400	14.355	
332.500	19.142	
332.600	15.388	
332.700	-9.788	
332.800	4.861	
332.900	0.095	
333.000	3.536	
333.100	-5.082	
333.200	6.713	
333.300	-18.294	
333.400	-6.943	
333.500	20.520	
333.600	-6.536	
333.700	27.572	
333.800	-1.447	
333.900	-0.243	
334.000	-3.290	
334.100	17.561	
334.200	35.792	
334.300	20.128	
334.400	-3.215	
334.500	5.670	
334.600	0.288	
334.700	9.608	
334.800	2.554	
334.900	7.583	
335.000	-2.227	
335.100	2.987	
335.200	19.997	
335.300	-7.695	
335.400	7.418	
335.500	20.041	
335.600	10.859	
335.700	11.654	
335.800	-8.207	
335.900	18.999	
336.000	17.747	
336.100	4.717	
336.200	16.970	
336.300	-3.216	
336.400	-8.572	
336.500	26.641	
336.600	3.889	
336.700	20.663	
336.800	17.807	
336.900	10.144	
337.000	4.546	
337.100	13.447	
337.200	16.836	
337.300	-0.984	
337.400	1.424	
337.500	6.759	
337.600	9.905	
337.700	22.053	
337.800	21.260	
337.900	16.412	
338.000	1.562	
338.100	14.809	
338.200	1.093	
338.300	-4.527	
338.400	7.310	
338.500	20.358	
338.600	7.273	
338.700	6.602	
338.800	16.753	
338.900	33.534	
339.000	19.237	
339.100	23.708	
339.200	4.780	
339.300	22.593	
339.400	20.072	
339.500	29.166	
339.600	21.849	
339.700	18.321	
339.800	14.723	
339.900	19.797	
340.000	20.709	
340.100	11.151	
340.200	28.176	
340.300	19.573	
340.400	15.144	
340.500	21.198	
340.600	4.760	
340.700	9.909	
340.800	30.963	
340.900	14.798	
341.000	-5.545	
341.100	22.290	
341.200	27.345	
341.300	28.710	
341.400	25.119	
341.500	29.286	
341.600	-15.397	
341.700	23.226	
341.800	28.100	
341.900	35.343	
342.000	36.234	
342.100	32.750	
342.200	16.542	
342.300	-13.559	
342.400	17.359	
342.500	45.086	
342.600	39.244	
342.700	26.726	
342.800	8.078	
342.900	40.818	
343.000	36.248	
343.100	36.089	
343.200	31.470	
343.300	16.866	
343.400	18.347	
343.500	40.160	
343.600	43.797	
343.700	34.444	
343.800	42.751	
343.900	22.329	
344.000	29.487	
344.100	25.823	
344.200	72.350	
344.300	39.571	
344.400	32.903	
344.500	27.721	
344.600	14.178	
344.700	42.136	
344.800	49.643	
344.900	38.410	
345.000	33.012	
345.100	34.206	
345.200	38.220	
345.300	65.448	
345.400	49.818	
345.500	51.004	
345.600	55.489	
345.700	25.684	
345.800	40.134	
345.900	52.798	
346.000	48.768	
346.100	52.599	
346.200	47.625	
346.300	65.063	
346.400	57.723	
346.500	49.054	
346.600	61.114	
346.700	44.315	
346.800	64.365	
346.900	31.166	
347.000	42.875	
347.100	65.838	
347.200	74.918	
347.300	51.108	
347.400	60.403	
347.500	44.248	
347.600	61.328	
347.700	67.890	
347.800	70.291	
347.900	50.532	
348.000	42.026	
348.100	65.542	
348.200	51.980	
348.300	64.968	
348.400	61.814	
348.500	37.554	
348.600	51.988	
348.700	60.866	
348.800	67.607	
348.900	66.971	
349.000	63.378	
349.100	52.517	
349.200	46.661	
349.300	75.525	
349.400	65.519	
349.500	49.795	
349.600	63.758	
349.700	61.256	
349.800	59.514	
349.900	55.737	
350.000	80.983	
350.100	83.111	
350.200	51.964	
350.300	78.083	
350.400	60.026	
350.500	69.079	
350.600	62.949	
350.700	70.745	
350.800	73.640	
350.900	61.777	
351.000	38.214	
351.100	59.826	
351.200	60.784	
351.300	71.308	
351.400	43.761	
351.500	57.756	
351.600	81.991	
351.700	68.717	
351.800	67.558	
351.900	73.463	
352.000	61.793	
352.100	57.846	
352.200	52.878	
352.300	51.601	
352.400	57.634	
352.500	74.230	
352.600	64.510	
352.700	60.774	
352.800	64.811	
352.900	46.052	
353.000	89.748	
353.100	69.455	
353.200	69.932	
353.300	39.596	
353.400	67.912	
353.500	70.457	
353.600	86.197	
353.700	49.764	
353.800	61.463	
353.900	47.519	
354.000	69.007	
354.100	60.241	
354.200	52.261	
354.300	70.881	
354.400	54.389	
354.500	55.656	
354.600	80.896	
354.700	55.351	
354.800	46.706	
354.900	73.105	
355.000	67.953	
355.100	57.110	
355.200	53.892	
355.300	67.200	
355.400	72.915	
355.500	63.229	
355.600	51.294	
355.700	36.073	
355.800	56.966	
355.900	66.263	
356.000	65.152	
356.100	77.288	
356.200	46.697	
356.300	37.755	
356.400	68.863	
356.500	43.847	
356.600	75.294	
356.700	43.599	
356.800	64.692	
356.900	53.881	
357.000	70.733	
357.100	48.274	
357.200	76.194	
357.300	58.963	
357.400	57.878	
357.500	55.109	
357.600	61.401	
357.700	46.608	
357.800	81.303	
357.900	60.277	
358.000	31.802	
358.100	49.890	
358.200	40.042	
358.300	78.523	
358.400	65.010	
358.500	40.187	
358.600	73.722	
358.700	35.278	
358.800	68.954	
358.900	65.082	
359.000	96.588	
359.100	47.771	
359.200	33.225	
359.300	82.306	
359.400	61.898	
359.500	58.918	
359.600	69.768	
359.700	65.880	
359.800	26.294	
359.900	73.489	
360.000	75.771	
360.100	63.396	
360.200	62.346	
360.300	39.701	
360.400	41.860	
360.500	56.503	
360.600	60.780	
360.700	78.191	
360.800	53.293	
360.900	41.529	
361.000	39.162	
361.100	59.602	
361.200	42.408	
361.300	62.614	
361.400	51.411	
361.500	65.183	
361.600	36.838	
361.700	40.958	
361.800	57.927	
361.900	61.025	
362.000	56.289	
362.100	56.733	
362.200	75.744	
362.300	59.532	
362.400	58.795	
362.500	58.112	
362.600	41.532	
362.700	42.241	
362.800	78.324	
362.900	53.805	
363.000	70.332	
363.100	52.254	
363.200	50.087	
363.300	47.608	
363.400	37.642	
363.500	77.561	
363.600	61.574	
363.700	52.693	
363.800	50.404	
363.900	49.743	
364.000	44.820	
364.100	65.541	
364.200	56.242	
364.300	42.088	
364.400	56.070	
364.500	80.738	
364.600	68.588	
364.700	46.984	
364.800	58.279	
364.900	48.341	
365.000	43.231	
365.100	61.238	
365.200	90.126	
365.300	71.755	
365.400	49.360	
365.500	64.081	
365.600	48.249	
365.700	45.389	
365.800	56.178	
365.900	62.796	
366.000	56.035	
366.100	45.898	
366.200	49.106	
366.300	55.131	
366.400	47.853	
366.500	65.280	
366.600	58.597	
366.700	50.389	
366.800	60.025	
366.900	46.494	
367.000	66.721	
367.100	63.519	
367.200	50.206	
367.300	48.355	
367.400	48.063	
367.500	45.372	
367.600	59.685	
367.700	61.515	
367.800	73.520	
367.900	64.910	
368.000	50.618	
368.100	58.548	
368.200	66.700	
368.300	52.633	
368.400	48.830	
368.500	57.286	
368.600	67.885	
368.700	58.627	
368.800	51.593	
368.900	72.318	
369.000	34.946	
369.100	45.110	
369.200	58.690	
369.300	49.957	
369.400	75.465	
369.500	66.805	
369.600	46.354	
369.700	32.653	
369.800	47.187	
369.900	69.013	
370.000	66.459	
370.100	49.789	
370.200	54.906	
370.300	60.539	
370.400	48.575	
370.500	63.024	
370.600	65.453	
370.700	64.469	
370.800	58.026	
370.900	0.396	
371.000	37.447	
371.100	42.347	
371.200	95.826	
371.300	70.280	
371.400	33.239	
371.500	36.973	
371.600	81.721	
371.700	76.965	
371.800	63.868	
371.900	42.035	
372.000	25.608	
372.100	60.452	
372.200	53.320	
372.300	49.291	
372.400	73.188	
372.500	58.230	
372.600	28.166	
372.700	61.827	
372.800	52.669	
372.900	70.053	
373.000	71.342	
373.100	55.772	
373.200	30.655	
373.300	58.818	
373.400	63.152	
373.500	60.366	
373.600	56.230	
373.700	34.297	
373.800	38.361	
373.900	70.095	
374.000	58.594	
374.100	63.997	
374.200	55.213	
374.300	58.853	
374.400	46.010	
374.500	52.492	
374.600	52.074	
374.700	46.447	
374.800	70.490	
374.900	53.387	
375.000	36.720	
375.100	36.320	
375.200	52.349	
375.300	52.385	
375.400	29.413	
375.500	62.332	
375.600	56.607	
375.700	49.263	
375.800	68.215	
375.900	56.525	
376.000	61.807	
376.100	49.963	
376.200	56.617	
376.300	62.518	
376.400	61.464	
376.500	51.482	
376.600	40.003	
376.700	57.351	
376.800	72.841	
376.900	43.287	
377.000	60.305	
377.100	68.424	
377.200	56.234	
377.300	50.882	
377.400	55.306	
377.500	60.836	
377.600	58.597	
377.700	64.649	
377.800	54.370	
377.900	51.121	
378.000	66.697	
378.100	61.363	
378.200	52.129	
378.300	55.832	
378.400	36.825	
378.500	54.543	
378.600	46.746	
378.700	66.399	
378.800	63.139	
378.900	63.071	
379.000	49.837	
379.100	36.621	
379.200	38.559	
379.300	61.982	
379.400	52.062	
379.500	45.587	
379.600	35.634	
379.700	46.798	
379.800	56.953	
379.900	51.540	
380.000	51.119	
380.100	38.457	
380.200	60.539	
380.300	74.458	
380.400	39.061	
380.500	63.151	
380.600	50.948	
380.700	51.393	
380.800	24.038	
380.900	61.491	
381.000	72.979	
381.100	62.803	
381.200	62.263	
381.300	56.358	
381.400	48.988	
381.500	47.654	
381.600	50.792	
381.700	74.177	
381.800	42.558	
381.900	72.813	
382.000	45.182	
382.100	54.689	
382.200	50.460	
382.300	50.342	
382.400	49.393	
382.500	62.516	
382.600	48.029	
382.700	41.292	
382.800	38.661	
382.900	73.820	
383.000	38.454	
383.100	36.156	
383.200	65.564	
383.300	61.737	
383.400	63.272	
383.500	31.328	
383.600	69.254	
383.700	52.930	
383.800	48.022	
383.900	50.416	
384.000	64.982	
384.100	54.172	
384.200	31.934	
384.300	50.787	
384.400	51.395	
384.500	65.397	
384.600	67.216	
384.700	44.437	
384.800	50.823	
384.900	42.644	
385.000	48.855	
385.100	53.035	
385.200	56.016	
385.300	54.708	
385.400	30.345	
385.500	51.689	
385.600	37.494	
385.700	52.031	
385.800	76.031	
385.900	36.250	
386.000	46.442	
386.100	45.049	
386.200	66.402	
386.300	33.998	
386.400	46.249	
386.500	29.958	
386.600	40.060	
386.700	48.915	
386.800	59.387	
386.900	52.283	
387.000	44.682	
387.100	55.041	
387.200	38.595	
387.300	49.575	
387.400	55.067	
387.500	66.243	
387.600	68.890	
387.700	43.713	
387.800	63.840	
387.900	45.040	
388.000	39.709	
388.100	60.579	
388.200	60.958	
388.300	55.548	
388.400	25.995	
388.500	53.431	
388.600	41.034	
388.700	61.577	
388.800	53.370	
388.900	39.988	
389.000	49.893	
389.100	69.539	
389.200	62.540	
389.300	49.138	
389.400	44.326	
389.500	53.973	
389.600	36.890	
389.700	57.500	
389.800	49.193	
389.900	57.038	
390.000	43.216	
390.100	54.764	
390.200	46.361	
390.300	42.380	
390.400	57.147	
390.500	29.461	
390.600	54.249	
390.700	29.141	
390.800	53.574	
390.900	31.770	
391.000	32.214	
391.100	36.830	
391.200	14.410	
391.300	38.730	
391.400	42.210	
391.500	31.413	
391.600	45.089	
391.700	24.215	
391.800	21.945	
391.900	22.020	
392.000	13.583	
392.100	9.016	
392.200	42.417	
392.300	20.767	
392.400	25.828	
392.500	26.161	
392.600	-0.295	
392.700	15.873	
392.800	24.847	
392.900	22.013	
393.000	4.019	
393.100	-16.749	
393.200	-0.680	
393.300	11.948	
393.400	12.956	
393.500	22.867	
393.600	-6.255	
393.700	24.033	
393.800	1.761	
393.900	-3.626	
394.000	15.963	
394.100	5.157	
394.200	-5.687	
394.300	7.972	
394.400	-1.338	
394.500	7.051	
394.600	-14.096	
394.700	8.208	
394.800	-14.056	
394.900	11.135	
395.000	-11.125	
395.100	13.656	
395.200	14.381	
395.300	-8.227	
395.400	-5.445	
395.500	-4.437	
395.600	9.483	
395.700	18.145	
395.800	3.258	
395.900	-6.436	
396.000	0.287	
396.100	0.424	
396.200	-5.781	
396.300	22.372	
396.400	3.540	
396.500	1.281	
396.600	-8.850	
396.700	1.773	
396.800	9.323	
396.900	-4.461	
397.000	-16.205	
397.100	6.334	
397.200	-5.249	
397.300	-33.997	
397.400	11.446	
397.500	11.317	
397.600	-4.538	
397.700	4.795	
397.800	-11.218	
397.900	1.687	
398.000	-7.563	
398.100	-7.741	
398.200	-13.539	
398.300	-10.813	
398.400	-16.038	
398.500	10.989	
398.600	-20.129	
398.700	-1.890	
398.800	-8.669	
398.900	-16.599	
399.000	-3.522	
399.100	-3.462	
399.200	13.580	
399.300	18.335	
399.400	-12.045	
399.500	-18.321	
399.600	-2.487	
399.700	3.560	
399.800	-18.149	
399.900	-0.617	
400.000	-19.756	
400.100	-3.074	
400.200	-19.085	
400.300	1.549	
400.400	-13.528	
400.500	-7.154	
400.600	1.480	
400.700	-20.540	
400.800	-1.292	
400.900	-1.771	
401.000	-15.924	
401.100	-15.485	
401.200	-25.305	
401.300	-8.143	
401.400	-35.234	
401.500	-8.284	
401.600	9.315	
401.700	-16.314	
401.800	-12.303	
401.900	-0.859	
402.000	-14.369	
402.100	-4.891	
402.200	-17.756	
402.300	-1.255	
402.400	-5.608	
402.500	-29.815	
402.600	-14.113	
402.700	-1.499	
402.800	-24.504	
402.900	-23.281	
403.000	-33.216	
403.100	2.647	
403.200	-21.003	
403.300	10.090	
403.400	-18.807	
403.500	-27.263	
403.600	-15.489	
403.700	-13.126	
403.800	-0.874	
403.900	-5.137	
404.000	-2.591	
404.100	-53.850	
404.200	-20.721	
404.300	15.729	
404.400	-10.699	
404.500	5.350	
404.600	-9.819	
404.700	-18.166	
404.800	-49.657	
404.900	-36.705	
405.000	-13.473	
405.100	-10.704	
405.200	-35.292	
405.300	0.135	
405.400	0.566	
405.500	-5.378	
405.600	-31.901	
405.700	-1.475	
405.800	-14.796	
405.900	-16.444	
406.000	-39.890	
406.100	-12.752	
406.200	-6.025	
406.300	-25.863	
406.400	-23.074	
406.500	-26.671	
406.600	-30.743	
406.700	-14.665	
406.800	-14.975	
406.900	-19.856	
407.000	-16.025	
407.100	-27.409	
407.200	-20.874	
407.300	-14.656	
407.400	-17.818	
407.500	3.727	
407.600	-41.216	
407.700	-20.188	
407.800	-48.936	
407.900	-18.261	
408.000	5.326	
408.100	5.907	
408.200	-36.217	
408.300	-28.671	
408.400	-14.472	
408.500	-21.405	
408.600	-28.083	
408.700	-40.898	
408.800	-23.632	
408.900	-11.251	
409.000	-18.556	
409.100	-16.724	
409.200	-11.598	
409.300	-14.547	
409.400	-26.145	
409.500	-21.955	
409.600	-5.167	
409.700	-13.567	
409.800	-38.500	
409.900	-28.728	
410.000	-27.938	
410.100	-28.585	
410.200	-12.158	
410.300	-19.767	
410.400	-25.714	
410.500	-24.624	
410.600	-45.285	
410.700	-29.103	
410.800	-28.451	
410.900	-12.990	
411.000	-19.770	
411.100	-31.872	
411.200	-26.929	
411.300	-33.801	
411.400	-12.195	
411.500	-26.551	
411.600	-36.890	
411.700	-29.635	
411.800	-43.995	
411.900	-43.070	
412.000	-21.167	
412.100	-3.709	
412.200	-16.147	
412.300	-40.072	
412.400	-35.152	
412.500	-26.477	
412.600	-38.194	
412.700	-38.996	
412.800	-31.519	
412.900	-38.510	
413.000	-6.285	
413.100	-33.748	
413.200	-39.761	
413.300	-32.574	
413.400	-31.690	
413.500	-29.704	
413.600	-24.585	
413.700	-23.504	
413.800	-5.237	
413.900	-20.778	
414.000	-50.983	
414.100	-40.272	
414.200	-24.346	
414.300	-13.737	
414.400	-16.523	
414.500	-15.439	
414.600	-39.007	
414.700	-30.420	
414.800	-39.184	
414.900	-42.505	
415.000	-32.488	
415.100	-15.190	
415.200	-20.993	
415.300	-31.729	
415.400	-56.588	
415.500	0.633	
415.600	-20.027	
415.700	-47.344	
415.800	-26.593	
415.900	-33.138	
416.000	-41.151	
416.100	-28.906	
416.200	-26.050	
416.300	-33.330	
416.400	-37.095	
416.500	-35.292	
416.600	-29.082	
416.700	-21.574	
416.800	-25.042	
416.900	-31.030	
417.000	-34.499	
417.100	-30.290	
417.200	-37.763	
417.300	-36.439	
417.400	-42.558	
417.500	-41.508	
417.600	-33.233	
417.700	-36.134	
417.800	-22.510	
417.900	-29.832	
418.000	-20.870	
418.100	-51.478	
418.200	-42.449	
418.300	-24.262	
418.400	-28.719	
418.500	-23.008	
418.600	-13.900	
418.700	-42.445	
418.800	-30.246	
418.900	-36.463	
419.000	-19.337	
419.100	-20.500	
419.200	-17.875	
419.300	-31.398	
419.400	-23.097	
419.500	-25.803	
419.600	-27.722	
419.700	-22.294	
419.800	-26.302	
419.900	-41.272	
420.000	-36.638	
420.100	-31.510	
420.200	-31.974	
420.300	-3.952	
420.400	-30.309	
420.500	-27.697	
420.600	-9.116	
420.700	-39.616	
420.800	-29.320	
420.900	-30.060	
421.000	-38.084	
421.100	-30.150	
421.200	-42.178	
421.300	-43.582	
421.400	-35.970	
421.500	-22.866	
421.600	-3.318	
421.700	-23.606	
421.800	-16.770	
421.900	-32.351	
422.000	-36.520	
422.100	-38.142	
422.200	-21.166	
422.300	-26.527	
422.400	-43.255	
422.500	-27.840	
422.600	-7.972	
422.700	-19.329	
422.800	-18.544	
422.900	-35.087	
423.000	-27.894	
423.100	-27.858	
423.200	-11.593	
423.300	-29.226	
423.400	-17.845	
423.500	-42.240	
423.600	-23.232	
423.700	-8.536	
423.800	-6.109	
423.900	-58.209	
424.000	-40.468	
424.100	-21.067	
424.200	-25.495	
424.300	-40.546	
424.400	-34.316	
424.500	-21.747	
424.600	-24.738	
424.700	-25.658	
424.800	-37.486	
424.900	-18.499	
425.000	-34.445	
425.100	-10.788	
425.200	-47.989	
425.300	-17.552	
425.400	-19.827	
425.500	-60.539	
425.600	-19.167	
425.700	-24.626	
425.800	-28.235	
425.900	-27.641	
426.000	-19.810	
426.100	-18.482	
426.200	-38.228	
426.300	-36.826	
426.400	-19.727	
426.500	-24.138	
426.600	-35.999	
426.700	-21.927	
426.800	-31.967	
426.900	-22.626	
427.000	-34.927	
427.100	-26.573	
427.200	-44.311	
427.300	-21.551	
427.400	-42.531	
427.500	-39.171	
427.600	-21.322	
427.700	-12.363	
427.800	-34.120	
427.900	-18.574	
428.000	-18.066	
428.100	-42.945	
428.200	-32.991	
428.300	-51.373	
428.400	-25.809	
428.500	-24.811	
428.600	-42.494	
428.700	-27.004	
428.800	-5.791	
428.900	-52.478	
429.000	-20.630	
429.100	-23.486	
429.200	-31.643	
429.300	-19.305	
429.400	-31.703	
429.500	-32.254	
429.600	-6.066	
429.700	-16.803	
429.800	-20.103	
429.900	-20.542	
430.000	-9.871	
430.100	-26.206	
430.200	-18.198	
430.300	-10.754	
430.400	-33.724	
430.500	-32.040	
430.600	-15.795	
430.700	-30.901	
430.800	-13.432	
430.900	-40.102	
431.000	-28.733	
431.100	-36.982	
431.200	8.728	
431.300	-46.689	
431.400	-29.712	
431.500	-14.371	
431.600	-26.015	
431.700	-20.147	
431.800	-46.143	
431.900	-25.828	
432.000	-44.725	
432.100	-28.381	
432.200	-42.110	
432.300	-36.553	
432.400	-29.092	
432.500	-21.398	
432.600	-2.472	
432.700	-36.517	
432.800	-28.864	
432.900	-46.847	
433.000	-30.921	
433.100	-26.483	
433.200	-26.370	
433.300	-11.916	
433.400	-43.447	
433.500	-41.070	
433.600	-8.229	
433.700	-15.203	
433.800	-31.213	
433.900	-53.850	
434.000	-13.179	
434.100	-21.984	
434.200	-13.904	
434.300	-29.499	
434.400	-40.414	
434.500	-32.280	
434.600	-31.053	
434.700	-36.695	
434.800	-6.226	
434.900	-18.239	
435.000	-22.197	
435.100	-32.413	
435.200	-16.788	
435.300	-27.062	
435.400	-22.181	
435.500	-19.874	
435.600	-20.077	
435.700	-31.569	
435.800	-45.932	
435.900	-23.952	
436.000	-27.466	
436.100	-25.752	
436.200	-13.477	
436.300	-19.878	
436.400	-13.726	
436.500	-19.662	
436.600	-11.683	
436.700	-21.445	
436.800	-55.378	
436.900	-15.869	
437.000	-50.726	
437.100	-0.061	
437.200	-9.616	
437.300	-6.900	
437.400	-37.197	
437.500	-34.655	
437.600	-24.486	
437.700	-15.726	
437.800	-54.189	
437.900	-7.463	
438.000	-24.884	
438.100	-18.519	
438.200	-9.464	
438.300	-42.043	
438.400	-28.864	
438.500	-37.159	
438.600	-20.436	
438.700	-53.814	
438.800	-24.989	
438.900	-2.279	
439.000	-19.075	
439.100	-29.915	
439.200	-35.567	
439.300	-32.233	
439.400	-34.176	
439.500	-19.224	
439.600	-16.868	
439.700	-10.778	
439.800	-29.448	
439.900	-33.935	
440.000	-34.571	
440.100	-22.631	
440.200	-21.207	
440.300	-24.380	
440.400	-24.249	
440.500	-33.833	
440.600	-19.466	
440.700	-26.529	
440.800	-33.939	
440.900	-20.439	
441.000	-32.880	
441.100	-29.119	
441.200	-31.251	
441.300	3.806	
441.400	-4.648	
441.500	-22.653	
441.600	-41.572	
441.700	-23.538	
441.800	-17.231	
441.900	-20.547	
442.000	-18.458	
442.100	-31.590	
442.200	-32.820	
442.300	-40.145	
442.400	-11.495	
442.500	-32.836	
442.600	-25.339	
442.700	-32.239	
442.800	-55.504	
442.900	-49.716	
443.000	-9.895	
443.100	-12.923	
443.200	1.196	
443.300	-5.236	
443.400	-36.279	
443.500	-22.548	
443.600	-31.597	
443.700	-24.853	
443.800	-33.103	
443.900	-28.574	
444.000	-18.305	
444.100	-26.062	
444.200	-16.837	
444.300	-20.554	
444.400	-16.839	
444.500	-19.721	
444.600	-43.214	
444.700	-42.365	
444.800	-7.067	
444.900	-5.666	
445.000	-38.027	
445.100	-44.680	
445.200	-36.293	
445.300	-10.394	
445.400	-27.612	
445.500	-24.576	
445.600	-20.237	
445.700	-38.622	
445.800	-29.406	
445.900	-21.600	
446.000	-9.212	
446.100	-20.061	
446.200	-19.462	
446.300	-47.569	
446.400	-24.488	
446.500	-26.894	
446.600	-1.382	
446.700	-26.363	
446.800	-38.954	
446.900	-60.028	
447.000	-24.654	
447.100	-18.620	
447.200	-22.446	
447.300	-50.077	
447.400	-29.759	
447.500	-32.449	
447.600	-26.596	
447.700	-29.768	
447.800	-5.519	
447.900	-29.119	
448.000	-39.887	
448.100	-37.629	
448.200	-16.278	
448.300	-25.603	
448.400	-12.919	
448.500	-23.979	
448.600	-41.855	
448.700	-5.539	
448.800	-13.146	
448.900	-14.989	
449.000	-34.306	
449.100	-27.581	
449.200	-35.534	
449.300	-17.017	
449.400	-21.414	
449.500	-2.470	
449.600	-22.272	
449.700	-57.668	
449.800	-21.681	
449.900	-22.281	
450.000	-35.351	
450.100	-26.672	
450.200	-16.589	
450.300	-45.522	
450.400	-33.457	
450.500	-13.461	
450.600	-15.453	
450.700	-16.090	
450.800	-39.508	
450.900	-22.002	
451.000	-15.665	
451.100	-6.746	
451.200	-14.802	
451.300	-34.956	
451.400	-21.184	
451.500	-18.131	
451.600	-28.726	
451.700	-9.758	
451.800	-25.384	
451.900	-26.154	
452.000	-39.736	
452.100	-33.385	
452.200	-19.326	
452.300	-4.563	
452.400	-20.804	
452.500	-30.387	
452.600	-22.774	
452.700	-28.464	
452.800	-38.965	
452.900	-32.116	
453.000	-44.995	
453.100	-12.328	
453.200	-22.176	
453.300	-16.072	
453.400	-27.961	
453.500	-22.398	
453.600	-15.294	
453.700	-19.551	
453.800	-19.903	
453.900	-17.476	
454.000	-26.405	
454.100	-23.855	
454.200	-23.562	
454.300	-25.763	
454.400	-13.639	
454.500	-23.932	
454.600	-17.389	
454.700	-12.771	
454.800	-12.836	
454.900	-29.562	
455.000	-36.123	
455.100	-37.963	
455.200	-21.227	
455.300	-29.506	
455.400	-16.765	
455.500	-13.114	
455.600	-39.395	
455.700	-43.348	
455.800	-19.906	
455.900	-31.089	
456.000	-12.117	
456.100	-28.213	
456.200	-24.494	
456.300	-23.525	
456.400	-18.976	
456.500	-4.160	
456.600	-49.867	
456.700	-22.182	
456.800	-22.705	
456.900	-23.223	
457.000	-9.193	
457.100	-23.491	
457.200	-17.642	
457.300	-11.423	
457.400	-36.589	
457.500	-9.905	
457.600	-24.478	
457.700	-2.028	
457.800	-31.662	
457.900	-19.033	
458.000	-25.890	
458.100	-20.612	
458.200	-8.893	
458.300	-48.030	
458.400	-31.985	
458.500	-11.614	
458.600	-34.862	
458.700	-23.152	
458.800	-14.659	
458.900	-14.797	
459.000	-13.960	
459.100	-33.698	
459.200	-24.406	
459.300	-4.922	
459.400	-15.899	
459.500	-11.892	
459.600	-15.436	
459.700	-60.638	
459.800	-41.664	
459.900	-9.920	
460.000	-25.626	
460.100	-40.394	
460.200	-15.613	
460.300	-33.124	
460.400	-28.934	
460.500	0.210	
460.600	3.127	
460.700	-26.768	
460.800	-27.953	
460.900	-23.160	
461.000	-15.407	
461.100	-17.728	
461.200	-41.358	
461.300	-27.933	
461.400	-24.680	
461.500	-26.460	
461.600	-11.044	
461.700	-11.053	
461.800	-27.739	
461.900	-46.053	
462.000	-26.942	
462.100	-1.306	
462.200	-9.615	
462.300	-17.999	
462.400	-1.871	
462.500	-42.588	
462.600	-26.991	
462.700	5.513	
462.800	-16.458	
462.900	-25.089	
463.000	-17.693	
463.100	-25.576	
463.200	-26.951	
463.300	-22.443	
463.400	-36.644	
463.500	-12.218	
463.600	-12.190	
463.700	-39.147	
463.800	-33.067	
463.900	-24.705	
464.000	-14.985	
464.100	-4.449	
464.200	-31.194	
464.300	-32.682	
464.400	-32.980	
464.500	-33.098	
464.600	2.922	
464.700	-4.502	
464.800	-18.685	
464.900	-40.102	
465.000	-34.964	
465.100	-0.037	
465.200	-7.858	
465.300	-21.081	
465.400	-53.261	
465.500	-30.587	
465.600	-32.364	
465.700	-27.034	
465.800	-23.675	
465.900	-22.481	
466.000	-23.404	
466.100	-27.098	
466.200	-21.404	
466.300	-10.779	
466.400	-29.854	
466.500	-13.995	
466.600	-39.667	
466.700	-27.748	
466.800	-25.130	
466.900	-4.258	
467.000	-27.730	
467.100	-16.483	
467.200	-29.155	
467.300	-25.859	
467.400	-23.214	
467.500	-47.081	
467.600	-31.599	
467.700	-18.297	
467.800	-8.994	
467.900	-21.164	
468.000	-38.636	
468.100	-0.068	
468.200	-29.047	
468.300	-1.687	
468.400	-9.555	
468.500	-47.297	
468.600	-38.615	
468.700	-0.807	
468.800	-21.977	
468.900	-28.624	
469.000	-22.872	
469.100	-12.534	
469.200	-15.998	
469.300	-24.665	
469.400	-7.923	
469.500	-31.490	
469.600	-27.595	
469.700	-7.284	
469.800	-27.167	
469.900	-18.903	
470.000	-3.003	
470.100	-14.885	
470.200	-31.202	
470.300	-36.247	
470.400	-4.578	
470.500	-15.101	
470.600	-24.576	
470.700	-47.394	
470.800	-0.869	
470.900	-24.234	
471.000	-16.430	
471.100	-11.665	
471.200	-13.583	
471.300	-16.199	
471.400	-46.203	
471.500	-8.437	
471.600	-22.248	
471.700	-9.710	
471.800	-18.082	
471.900	-8.674	
472.000	-47.707	
472.100	-17.885	
472.200	2.271	
472.300	-5.910	
472.400	-16.264	
472.500	-28.027	
472.600	-30.175	
472.700	-19.777	
472.800	-16.142	
472.900	-20.411	
473.000	-37.256	
473.100	-48.431	
473.200	-8.804	
473.300	-41.819	
473.400	-13.436	
473.500	-26.709	
473.600	-24.150	
473.700	-30.045	
473.800	-11.583	
473.900	-29.975	
474.000	-10.376	
474.100	-29.132	
474.200	-2.374	
474.300	-48.905	
474.400	-4.463	
474.500	-14.944	
474.600	-30.609	
474.700	-25.281	
474.800	-16.252	
474.900	-44.188	
475.000	-13.232	
475.100	-15.469	
475.200	-36.072	
475.300	-19.684	
475.400	-23.719	
475.500	-20.974	
475.600	-22.458	
475.700	-26.564	
475.800	-11.464	
475.900	-45.877	
476.000	-19.942	
476.100	-21.588	
476.200	1.790	
476.300	-2.764	
476.400	-12.190	
476.500	-42.100	
476.600	-19.733	
476.700	-27.018	
476.800	-12.644	
476.900	-27.371	
477.000	-12.669	
477.100	-17.619	
477.200	-32.707	
477.300	-22.644	
477.400	-3.789	
477.500	-29.360	
477.600	-14.014	
477.700	-15.924	
477.800	-18.512	
477.900	-38.213	
478.000	-29.732	
478.100	-0.613	
478.200	-19.928	
478.300	-20.152	
478.400	-24.468	
478.500	-15.741	
478.600	-30.786	
478.700	2.350	
478.800	-25.446	
478.900	-34.575	
479.000	-48.168	
479.100	-33.583	
479.200	-17.460	
479.300	-17.225	
479.400	-26.880	
479.500	-31.888	
479.600	-8.888	
479.700	-23.329	
479.800	-20.259	
479.900	-12.727	
480.000	-26.902	
480.100	-18.914	
480.200	-29.485	
480.300	-5.287	
480.400	-7.724	
480.500	0.304	
480.600	-13.727	
480.700	0.984	
480.800	-13.729	
480.900	-13.694	
481.000	-7.404	
481.100	7.299	
481.200	-6.397	
481.300	18.525	
481.400	-12.208	
481.500	-15.104	
481.600	23.331	
481.700	-13.068	
481.800	10.680	
481.900	-15.134	
482.000	13.460	
482.100	30.434	
482.200	15.584	
482.300	-9.121	
482.400	9.659	
482.500	24.133	
482.600	7.981	
482.700	11.153	
482.800	11.844	
482.900	14.236	
483.000	16.163	
483.100	0.129	
483.200	14.802	
483.300	24.061	
483.400	12.712	
483.500	-4.781	
483.600	2.314	
483.700	-2.781	
483.800	13.267	
483.900	10.753	
484.000	11.208	
484.100	7.492	
484.200	-4.948	
484.300	24.562	
484.400	23.964	
484.500	26.282	
484.600	9.269	
484.700	21.873	
484.800	-1.396	
484.900	19.695	
485.000	12.452	
485.100	25.800	
485.200	11.246	
485.300	5.646	
485.400	-4.742	
485.500	6.646	
485.600	10.595	
485.700	8.098	
485.800	10.989	
485.900	0.132	
486.000	-4.516	
486.100	27.002	
486.200	18.620	
486.300	11.335	
486.400	24.761	
486.500	5.752	
486.600	-12.931	
486.700	16.811	
486.800	13.537	
486.900	8.251	
487.000	10.629	
487.100	22.024	
487.200	19.175	
487.300	13.209	
487.400	-1.218	
487.500	24.161	
487.600	21.799	
487.700	-14.611	
487.800	19.766	
487.900	-0.316	
488.000	33.596	
488.100	29.069	
488.200	1.684	
488.300	-7.971	
488.400	3.394	
488.500	32.772	
488.600	12.714	
488.700	20.816	
488.800	13.184	
488.900	6.944	
489.000	6.429	
489.100	35.520	
489.200	1.856	
489.300	10.558	
489.400	9.160	
489.500	7.922	
489.600	17.127	
489.700	27.337	
489.800	2.175	
489.900	15.328	
490.000	7.890	
490.100	27.356	
490.200	9.034	
490.300	24.678	
490.400	25.324	
490.500	17.460	
490.600	2.941	
490.700	8.801	
490.800	38.658	
490.900	42.746	
491.000	35.444	
491.100	17.502	
491.200	26.382	
491.300	16.748	
491.400	39.050	
491.500	31.293	
491.600	10.080	
491.700	6.284	
491.800	2.413	
491.900	6.168	
492.000	37.595	
492.100	49.223	
492.200	-15.921	
492.300	11.090	
492.400	35.788	
492.500	1.036	
492.600	23.582	
492.700	34.317	
492.800	29.547	
492.900	25.738	
493.000	46.672	
493.100	16.899	
493.200	25.036	
493.300	2.783	
493.400	37.652	
493.500	34.390	
493.600	34.444	
493.700	37.658	
493.800	19.797	
493.900	34.683	
494.000	45.166	
494.100	21.369	
494.200	22.618	
494.300	12.549	
494.400	51.769	
494.500	52.619	
494.600	37.294	
494.700	3.773	
494.800	41.373	
494.900	44.903	
495.000	58.960	
495.100	47.132	
495.200	39.391	
495.300	35.706	
495.400	42.531	
495.500	45.300	
495.600	36.260	
495.700	41.563	
495.800	22.060	
495.900	59.967	
496.000	33.125	
496.100	59.662	
496.200	63.155	
496.300	70.491	
496.400	42.602	
496.500	74.085	
496.600	49.456	
496.700	47.312	
496.800	51.406	
496.900	58.236	
497.000	56.527	
497.100	49.671	
497.200	53.868	
497.300	92.979	
497.400	68.998	
497.500	56.709	
497.600	38.781	
497.700	47.192	
497.800	79.575	
497.900	45.572	
498.000	64.432	
498.100	48.783	
498.200	52.333	
498.300	50.665	
498.400	52.410	
498.500	66.625	
498.600	67.527	
498.700	45.148	
498.800	51.997	
498.900	43.358	
499.000	82.698	
499.100	70.906	
499.200	87.543	
499.300	49.945	
499.400	61.214	
499.500	71.497	
499.600	75.628	
499.700	83.796	
499.800	60.020	
499.900	66.672	
500.000	61.098	
500.100	57.710	
500.200	75.108	
500.300	62.018	
500.400	70.981	
500.500	69.180	
500.600	64.329	
500.700	74.819	
500.800	80.654	
500.900	53.691	
501.000	70.122	
501.100	34.354	
501.200	48.053	
501.300	44.008	
501.400	79.802	
501.500	80.833	
501.600	64.625	
501.700	79.301	
501.800	64.821	
501.900	69.889	
502.000	67.411	
502.100	72.144	
502.200	57.913	
502.300	53.530	
502.400	81.805	
502.500	59.582	
502.600	50.427	
502.700	73.104	
502.800	58.285	
502.900	67.947	
503.000	70.591	
503.100	69.639	
503.200	46.140	
503.300	56.597	
503.400	61.366	
503.500	62.526	
503.600	75.280	
503.700	57.491	
503.800	67.704	
503.900	49.261	
504.000	53.910	
504.100	49.925	
504.200	74.684	
504.300	91.481	
504.400	75.960	
504.500	44.810	
504.600	43.963	
504.700	64.190	
504.800	73.999	
504.900	73.277	
505.000	61.160	
505.100	78.272	
505.200	58.122	
505.300	53.986	
505.400	66.131	
505.500	80.325	
505.600	89.967	
505.700	61.810	
505.800	55.806	
505.900	48.963	
506.000	59.263	
506.100	74.901	
506.200	67.764	
506.300	52.759	
506.400	49.434	
506.500	57.047	
506.600	48.535	
506.700	62.895	
506.800	69.071	
506.900	37.531	
507.000	64.699	
507.100	60.553	
507.200	80.864	
507.300	87.559	
507.400	49.556	
507.500	60.054	
507.600	65.364	
507.700	43.840	
507.800	55.523	
507.900	64.115	
508.000	71.564	
508.100	50.958	
508.200	50.333	
508.300	48.313	
508.400	52.687	
508.500	72.469	
508.600	59.420	
508.700	53.022	
508.800	32.104	
508.900	86.336	
509.000	67.820	
509.100	74.375	
509.200	57.324	
509.300	47.400	
509.400	39.792	
509.500	74.786	
509.600	73.062	
509.700	53.765	
509.800	52.687	
509.900	56.059	
510.000	67.840	
510.100	62.500	
510.200	67.158	
510.300	59.940	
510.400	32.647	
510.500	60.911	
510.600	56.556	
510.700	54.550	
510.800	59.192	
510.900	43.218	
511.000	57.707	
511.100	55.424	
511.200	58.345	
511.300	68.535	
511.400	55.600	
511.500	56.663	
511.600	61.787	
511.700	52.002	
511.800	65.332	
511.900	68.793	
512.000	74.445	
512.100	42.372	
512.200	55.257	
512.300	51.353	
512.400	63.325	
512.500	72.303	
512.600	71.654	
512.700	53.736	
512.800	57.272	
512.900	42.197	
513.000	50.126	
513.100	66.022	
513.200	76.014	
513.300	51.447	
513.400	42.928	
513.500	47.528	
513.600	60.400	
513.700	72.035	
513.800	71.504	
513.900	56.720	
514.000	39.926	
514.100	54.668	
514.200	61.065	
514.300	67.089	
514.400	43.172	
514.500	69.920	
514.600	57.931	
514.700	52.417	
514.800	55.145	
514.900	54.574	
515.000	52.227	
515.100	46.255	
515.200	34.057	
515.300	67.828	
515.400	64.803	
515.500	71.825	
515.600	65.162	
515.700	45.803	
515.800	48.399	
515.900	64.246	
516.000	73.201	
516.100	73.820	
516.200	66.349	
516.300	63.260	
516.400	42.131	
516.500	59.020	
516.600	70.267	
516.700	55.552	
516.800	48.191	
516.900	46.212	
517.000	35.402	
517.100	64.284	
517.200	63.541	
517.300	56.443	
517.400	51.143	
517.500	46.319	
517.600	74.053	
517.700	81.374	
517.800	54.081	
517.900	40.482	
518.000	65.354	
518.100	62.126	
518.200	43.513	
518.300	61.533	
518.400	63.812	
518.500	55.979	
518.600	47.253	
518.700	44.684	
518.800	77.003	
518.900	53.394	
519.000	84.438	
519.100	51.811	
519.200	40.914	
519.300	49.293	
519.400	40.200	
519.500	44.641	
519.600	57.900	
519.700	68.866	
519.800	31.458	
519.900	41.472	
520.000	87.178	
520.100	30.519	
520.200	60.617	
520.300	62.122	
520.400	25.289	
520.500	46.497	
520.600	67.319	
520.700	78.994	
520.800	44.390	
520.900	52.240	
521.000	35.446	
521.100	64.191	
521.200	40.386	
521.300	57.710	
521.400	56.835	
521.500	46.909	
521.600	61.246	
521.700	82.347	
521.800	72.553	
521.900	30.770	
522.000	53.516	
522.100	57.472	
522.200	26.505	
522.300	59.792	
522.400	64.398	
522.500	57.565	
522.600	52.397	
522.700	59.806	
522.800	35.093	
522.900	62.864	
523.000	44.948	
523.100	63.527	
523.200	29.651	
523.300	31.915	
523.400	67.178	
523.500	70.346	
523.600	45.737	
523.700	39.042	
523.800	52.288	
523.900	51.309	
524.000	52.901	
524.100	48.191	
524.200	66.870	
524.300	77.271	
524.400	49.567	
524.500	56.762	
524.600	50.503	
524.700	62.001	
524.800	62.696	
524.900	65.924	
525.000	55.369	
525.100	61.062	
525.200	50.662	
525.300	78.833	
525.400	53.117	
525.500	63.401	
525.600	54.582	
525.700	46.009	
525.800	63.693	
525.900	67.658	
526.000	65.455	
526.100	37.905	
526.200	31.841	
526.300	48.507	
526.400	56.795	
526.500	65.672	
526.600	70.452	
526.700	46.082	
526.800	58.122	
526.900	43.785	
527.000	52.688	
527.100	57.403	
527.200	65.825	
527.300	39.407	
527.400	53.712	
527.500	43.768	
527.600	39.376	
527.700	76.360	
527.800	54.253	
527.900	58.843	
528.000	50.025	
528.100	51.835	
528.200	46.550	
528.300	48.172	
528.400	78.102	
528.500	51.063	
528.600	42.487	
528.700	46.966	
528.800	64.606	
528.900	50.120	
529.000	64.402	
529.100	59.555	
529.200	56.227	
529.300	69.958	
529.400	53.606	
529.500	41.311	
529.600	50.819	
529.700	54.184	
529.800	64.313	
529.900	75.481	
530.000	49.673	
530.100	66.259	
530.200	36.485	
530.300	60.439	
530.400	66.689	
530.500	59.330	
530.600	49.590	
530.700	63.353	
530.800	59.402	
530.900	51.814	
531.000	50.863	
531.100	59.393	
531.200	50.597	
531.300	57.269	
531.400	47.875	
531.500	53.648	
531.600	50.867	
531.700	42.733	
531.800	58.226	
531.900	77.866	
532.000	32.164	
532.100	46.103	
532.200	44.719	
532.300	47.154	
532.400	56.732	
532.500	49.136	
532.600	52.763	
532.700	56.523	
532.800	23.730	
532.900	49.667	
533.000	53.361	
533.100	58.844	
533.200	57.230	
533.300	76.543	
533.400	52.532	
533.500	63.448	
533.600	60.866	
533.700	44.691	
533.800	43.490	
533.900	48.523	
534.000	58.179	
534.100	59.223	
534.200	73.498	
534.300	49.288	
534.400	46.171	
534.500	40.670	
534.600	51.547	
534.700	44.689	
534.800	70.898	
534.900	54.584	
535.000	46.565	
535.100	44.813	
535.200	46.774	
535.300	42.278	
535.400	71.085	
535.500	71.149	
535.600	52.222	
535.700	59.565	
535.800	48.783	
535.900	66.558	
536.000	42.843	
536.100	44.229	
536.200	60.371	
536.300	50.376	
536.400	57.289	
536.500	50.977	
536.600	33.043	
536.700	55.689	
536.800	56.183	
536.900	60.302	
537.000	51.780	
537.100	67.064	
537.200	56.789	
537.300	33.926	
537.400	41.814	
537.500	45.803	
537.600	60.542	
537.700	68.024	
537.800	55.684	
537.900	35.364	
538.000	54.286	
538.100	58.889	
538.200	56.378	
538.300	56.150	
538.400	40.273	
538.500	46.868	
538.600	45.632	
538.700	50.963	
538.800	74.420	
538.900	65.778	
539.000	28.708	
539.100	34.299	
539.200	40.406	
539.300	78.596	
539.400	66.498	
539.500	46.242	
539.600	39.064	
539.700	44.941	
539.800	73.795	
539.900	64.784	
540.000	46.754	
540.100	59.669	
540.200	43.843	
540.300	34.252	
540.400	31.150	
540.500	50.747	
540.600	65.688	
540.700	25.297	
540.800	24.221	
540.900	36.690	
541.000	32.232	
541.100	58.778	
541.200	55.934	
541.300	16.162	
541.400	17.404	
541.500	30.948	
541.600	35.610	
541.700	18.013	
541.800	5.693	
541.900	35.689	
542.000	5.622	
542.100	24.291	
542.200	23.356	
542.300	7.355	
542.400	38.541	
542.500	32.913	
542.600	22.982	
542.700	11.849	
542.800	6.615	
542.900	12.726	
543.000	25.876	
543.100	0.216	
543.200	-0.372	
543.300	24.297	
543.400	23.146	
543.500	26.458	
543.600	22.421	
543.700	9.645	
543.800	-2.087	
543.900	-6.255	
544.000	-8.946	
544.100	9.896	
544.200	-4.384	
544.300	-5.759	
544.400	1.227	
544.500	-3.593	
544.600	23.927	
544.700	-4.172	
544.800	-14.541	
544.900	9.151	
545.000	-17.638	
545.100	15.117	
545.200	5.371	
545.300	7.824	
545.400	-1.985	
545.500	-28.649	
545.600	4.299	
545.700	3.813	
545.800	-1.044	
545.900	9.406	
546.000	-29.604	
546.100	-3.880	
546.200	0.439	
546.300	-9.880	
546.400	-7.533	
546.500	-2.653	
546.600	13.830	
546.700	3.157	
546.800	-14.381	
546.900	-9.851	
547.000	17.317	
547.100	-22.277	
547.200	-0.786	
547.300	-8.395	
547.400	-8.774	
547.500	1.007	
547.600	-8.592	
547.700	5.172	
547.800	-2.778	
547.900	-8.994	
548.000	-3.689	
548.100	-10.989	
548.200	5.043	
548.300	-9.016	
548.400	-23.741	
548.500	18.155	
548.600	-31.495	
548.700	18.647	
548.800	13.689	
548.900	-29.272	
549.000	26.969	
549.100	-10.101	
549.200	-8.563	
549.300	-23.956	
549.400	-12.971	
549.500	-12.786	
549.600	-14.978	
549.700	2.845	
549.800	-9.343	
549.900	-14.173	
550.000	-20.363	
550.100	6.217	
550.200	-16.509	
550.300	-11.586	
550.400	-10.442	
550.500	9.588	
550.600	-7.837	
550.700	-16.790	
550.800	-17.926	
550.900	-33.399	
551.000	18.559	
551.100	-2.235	
551.200	-19.117	
551.300	-34.555	
551.400	-8.262	
551.500	12.168	
551.600	-3.364	
551.700	-8.246	
551.800	-12.264	
551.900	-24.566	
552.000	-20.108	
552.100	-0.084	
552.200	0.508	
552.300	2.555	
552.400	-24.781	
552.500	-13.310	
552.600	-9.623	
552.700	-19.457	
552.800	1.268	
552.900	-8.229	
553.000	-11.852	
553.100	-18.962	
553.200	-3.810	
553.300	-10.808	
553.400	-13.465	
553.500	-19.225	
553.600	-29.294	
553.700	-24.000	
553.800	-19.259	
553.900	-37.922	
554.000	-4.275	
554.100	-20.348	
554.200	-32.651	
554.300	-19.993	
554.400	-6.441	
554.500	15.607	
554.600	-11.766	
554.700	-9.428	
554.800	-24.106	
554.900	-11.902	
555.000	-25.736	
555.100	-12.518	
555.200	-4.278	
555.300	-5.988	
555.400	-10.756	
555.500	-11.905	
555.600	-23.880	
555.700	-1.044	
555.800	-29.252	
555.900	-31.128	
556.000	-32.652	
556.100	-30.592	
556.200	8.014	
556.300	-2.844	
556.400	-21.396	
556.500	-26.184	
556.600	-27.420	
556.700	-18.707	
556.800	-16.799	
556.900	-8.705	
557.000	-18.174	
557.100	2.182	
557.200	-6.819	
557.300	-29.136	
557.400	-12.401	
557.500	-7.072	
557.600	-9.834	
557.700	-39.788	
557.800	-10.477	
557.900	-38.864	
558.000	-5.236	
558.100	-27.018	
558.200	-19.005	
558.300	-28.235	
558.400	-21.171	
558.500	-18.202	
558.600	-25.123	
558.700	-1.022	
558.800	-28.342	
558.900	-29.924	
559.000	-22.006	
559.100	-49.743	
559.200	-11.925	
559.300	-46.467	
559.400	-42.730	
559.500	-31.197	
559.600	-26.987	
559.700	-16.182	
559.800	-16.366	
559.900	-18.174	
560.000	-18.998	
560.100	-41.606	
560.200	-36.780	
560.300	-30.029	
560.400	-8.977	
560.500	-25.301	
560.600	-25.073	
560.700	-23.637	
560.800	-20.184	
560.900	-38.029	
561.000	-14.507	
561.100	-20.050	
561.200	-14.283	
561.300	-38.364	
561.400	-30.368	
561.500	-17.063	
561.600	-19.908	
561.700	-37.974	
561.800	-29.054	
561.900	-18.758	
562.000	-27.823	
562.100	-48.994	
562.200	-27.848	
562.300	-16.977	
562.400	-40.469	
562.500	-6.935	
562.600	-31.594	
562.700	-7.433	
562.800	-31.913	
562.900	-41.461	
563.000	-35.595	
563.100	-40.084	
563.200	-10.848	
563.300	-2.817	
563.400	-26.358	
563.500	-22.670	
563.600	-35.111	
563.700	-40.216	
563.800	-25.094	
563.900	-31.289	
564.000	-36.215	
564.100	-50.278	
564.200	-39.778	
564.300	-30.482	
564.400	-3.514	
564.500	-43.811	
564.600	-8.482	
564.700	-43.174	
564.800	-30.974	
564.900	-18.710	
565.000	-48.993	
565.100	-14.040	
565.200	-24.487	
565.300	-68.194	
565.400	-43.939	
565.500	-21.949	
565.600	-25.700	
565.700	-31.146	
565.800	-35.649	
565.900	-59.015	
566.000	-27.090	
566.100	-31.875	
566.200	-24.706	
566.300	-14.578	
566.400	-33.060	
566.500	-33.611	
566.600	-44.074	
566.700	-21.402	
566.800	-16.315	
566.900	-24.804	
567.000	-65.817	
567.100	-10.336	
567.200	-23.555	
567.300	-42.364	
567.400	-31.150	
567.500	-29.789	
567.600	-36.959	
567.700	-32.787	
567.800	-16.458	
567.900	-28.297	
568.000	-15.885	
568.100	-34.573	
568.200	-41.076	
568.300	-64.955	
568.400	-43.488	
568.500	-8.646	
568.600	-14.093	
568.700	-21.886	
568.800	-36.966	
568.900	-35.270	
569.000	-24.203	
569.100	-32.479	
569.200	-19.289	
569.300	-48.057	
569.400	-30.960	
569.500	-39.442	
569.600	-16.957	
569.700	-11.564	
569.800	-32.479	
569.900	-14.441	
570.000	-24.088	
570.100	-40.794	
570.200	-14.679	
570.300	-18.577	
570.400	-22.707	
570.500	-45.770	
570.600	-18.846	
570.700	-30.912	
570.800	-28.273	
570.900	-27.638	
571.000	-32.315	
571.100	-42.476	
571.200	-31.550	
571.300	-20.832	
571.400	-30.825	
571.500	-46.657	
571.600	-41.101	
571.700	-38.074	
571.800	-24.723	
571.900	-30.712	
572.000	-21.595	
572.100	-26.960	
572.200	-27.992	
572.300	-39.721	
572.400	-27.190	
572.500	-6.562	
572.600	-12.769	
572.700	-26.402	
572.800	-30.471	
572.900	-61.318	
573.000	-23.976	
573.100	-35.408	
573.200	-17.005	
573.300	-25.182	
573.400	-55.223	
573.500	-28.157	
573.600	-20.647	
573.700	-37.699	
573.800	-16.762	
573.900	-20.357	
574.000	-33.268	
574.100	-33.494	
574.200	-56.970	
574.300	-46.707	
574.400	-17.190	
574.500	-24.933	
574.600	-12.064	
574.700	-54.264	
574.800	-18.006	
574.900	-25.298	
575.000	-7.626	
575.100	-21.946	
575.200	-53.503	
575.300	-49.356	
575.400	-24.654	
575.500	-28.713	
575.600	-5.744	
575.700	-26.989	
575.800	-22.953	
575.900	-53.707	
576.000	-31.322	
576.100	-25.722	
576.200	-41.330	
576.300	-38.249	
576.400	-37.441	
576.500	-54.563	
576.600	-17.021	
576.700	-5.984	
576.800	-14.048	
576.900	-16.625	
577.000	-14.894	
577.100	-40.584	
577.200	-48.412	
577.300	-19.863	
577.400	-28.234	
577.500	-31.488	
577.600	-41.503	
577.700	-39.284	
577.800	-17.235	
577.900	-13.656	
578.000	-24.070	
578.100	-34.725	
578.200	-40.401	
578.300	-10.148	
578.400	-20.618	
578.500	-28.068	
578.600	-41.563	
578.700	-21.326	
578.800	-34.045	
578.900	-33.590	
579.000	-8.331	
579.100	-22.847	
579.200	-29.687	
579.300	-46.213	
579.400	-31.407	
579.500	-40.379	
579.600	-40.088	
579.700	-21.629	
579.800	-21.153	
579.900	-16.152	
580.000	-34.333	
580.100	-21.629	
580.200	-10.067	
580.300	-18.146	
580.400	-40.367	
580.500	-12.248	
580.600	-42.484	
580.700	-22.432	
580.800	-25.362	
580.900	-28.851	
581.000	-29.445	
581.100	-13.979	
581.200	-21.681	
581.300	-31.958	
581.400	-15.545	
581.500	-20.692	
581.600	-36.122	
581.700	-27.042	
581.800	-46.684	
581.900	-3.804	
582.000	-18.008	
582.100	-10.907	
582.200	-54.132	
582.300	-34.715	
582.400	-38.332	
582.500	0.498	
582.600	-3.470	
582.700	-44.095	
582.800	-30.012	
582.900	-58.536	
583.000	-18.016	
583.100	-30.760	
583.200	-23.580	
583.300	-38.693	
583.400	-20.757	
583.500	-64.309	
583.600	-40.350	
583.700	-11.382	
583.800	-29.512	
583.900	-22.601	
584.000	-26.119	
584.100	-18.654	
584.200	-11.494	
584.300	-25.923	
584.400	-14.221	
584.500	-45.799	
584.600	-54.949	
584.700	-31.878	
584.800	-22.769	
584.900	13.027	
585.000	-22.820	
585.100	-45.521	
585.200	-49.029	
585.300	-25.839	
585.400	-21.533	
585.500	-22.960	
585.600	-21.718	
585.700	-35.508	
585.800	-37.378	
585.900	-9.925	
586.000	-10.128	
586.100	-29.221	
586.200	-25.366	
586.300	-45.809	
586.400	-30.750	
586.500	-26.990	
586.600	-36.649	
586.700	-10.816	
586.800	-12.010	
586.900	-42.200	
587.000	-37.831	
587.100	-33.867	
587.200	-29.274	
587.300	-33.649	
587.400	-19.462	
587.500	-35.594	
587.600	-15.479	
587.700	-25.197	
587.800	-22.175	
587.900	-13.567	
588.000	-37.221	
588.100	-26.406	
588.200	-28.180	
588.300	-23.040	
588.400	-29.441	
588.500	-43.770	
588.600	-21.707	
588.700	-18.636	
588.800	-22.800	
588.900	-31.228	
589.000	-16.303	
589.100	-51.824	
589.200	-51.508	
589.300	-38.643	
589.400	-37.788	
589.500	-22.118	
589.600	-22.218	
589.700	-30.219	
589.800	-32.888	
589.900	-37.698	
590.000	-27.224	
590.100	-10.498	
590.200	-44.339	
590.300	-8.987	
590.400	-40.481	
590.500	-20.787	
590.600	-14.459	
590.700	-32.072	
590.800	-4.594	
590.900	-53.510	
591.000	-34.058	
591.100	-36.872	
591.200	-34.630	
591.300	-13.562	
591.400	-27.251	
591.500	-9.494	
591.600	-17.269	
591.700	-33.769	
591.800	-32.279	
591.900	-25.173	
592.000	-25.101	
592.100	-9.478	
592.200	-25.366	
592.300	-28.224	
592.400	-14.087	
592.500	-29.190	
592.600	-41.640	
592.700	-15.317	
592.800	-25.367	
592.900	-45.176	
593.000	-4.722	
593.100	-13.493	
593.200	-29.795	
593.300	-38.379	
593.400	-34.408	
593.500	-60.239	
593.600	-12.836	
593.700	-17.819	
593.800	-24.260	
593.900	-27.959	
594.000	-42.281	
594.100	-34.254	
594.200	-15.646	
594.300	-12.789	
594.400	-15.581	
594.500	-27.964	
594.600	-58.827	
594.700	-37.945	
594.800	-17.208	
594.900	-13.581	
595.000	-23.954	
595.100	-20.032	
595.200	-35.694	
595.300	-17.169	
595.400	-30.266	
595.500	-17.911	
595.600	-32.773	
595.700	-17.730	
595.800	-36.858	
595.900	-14.005	
596.000	-24.975	
596.100	-14.712	
596.200	3.942	
596.300	-39.002	
596.400	-20.298	
596.500	-30.968	
596.600	-22.525	
596.700	-8.754	
596.800	-32.252	
596.900	-17.768	
597.000	-34.126	
597.100	-23.483	
597.200	-9.999	
597.300	-13.091	
597.400	-36.086	
597.500	-31.158	
597.600	-31.884	
597.700	-35.738	
597.800	-23.690	
597.900	-9.004	
598.000	-39.357	
598.100	-47.004	
598.200	-24.743	
598.300	-14.037	
598.400	3.303	
598.500	-42.681	
598.600	-18.894	
598.700	-31.580	
598.800	-40.125	
598.900	-19.952	
599.000	-12.311	
599.100	-39.985	
599.200	-36.543	
599.300	-11.885	
599.400	-37.394	
599.500	-20.183	
599.600	-25.486	
599.700	-43.547	
599.800	-31.459	
599.900	-16.814	
600.000	1.554	
600.100	-21.767	
600.200	-24.984	
600.300	-24.259	
600.400	-39.426	
600.500	-32.858	
600.600	-8.689	
600.700	-20.293	
600.800	-33.627	
600.900	-38.335	
601.000	-40.967	
601.100	-30.413	
601.200	-18.827	
601.300	-40.064	
601.400	-30.415	
601.500	-25.022	
601.600	-16.227	
601.700	-20.453	
601.800	-24.268	
601.900	-23.552	
602.000	-9.073	
602.100	-36.512	
602.200	-34.326	
602.300	-52.611	
602.400	-9.758	
602.500	-22.312	
602.600	-24.412	
602.700	-33.793	
602.800	-40.841	
602.900	-13.157	
603.000	-29.934	
603.100	-11.650	
603.200	-18.565	
603.300	-45.927	
603.400	-45.562	
603.500	-7.227	
603.600	-16.930	
603.700	-42.298	
603.800	-12.481	
603.900	-7.157	
604.000	-10.685	
604.100	-25.342	
604.200	-19.401	
604.300	-16.809	
604.400	-39.744	
604.500	-8.151	
604.600	-17.381	
604.700	-8.819	
604.800	-31.524	
604.900	-13.814	
605.000	-45.195	
605.100	-30.835	
605.200	-26.535	
605.300	-22.050	
605.400	-10.756	
605.500	-36.148	
605.600	-38.380	
605.700	-32.267	
605.800	-38.893	
605.900	-15.929	
606.000	-26.396	
606.100	-25.886	
606.200	-20.419	
606.300	-31.505	
606.400	-33.158	
606.500	-9.425	
606.600	-47.503	
606.700	-26.797	
606.800	-40.191	
606.900	-22.332	
607.000	-30.199	
607.100	-21.408	
607.200	-14.865	
607.300	-20.219	
607.400	-29.249	
607.500	-28.633	
607.600	-25.209	
607.700	-25.910	
607.800	-25.057	
607.900	-26.851	
608.000	-31.961	
608.100	-9.495	
608.200	-23.316	
608.300	-18.535	
608.400	-32.456	
608.500	-19.528	
608.600	-13.723	
608.700	-45.322	
608.800	-22.179	
608.900	-18.709	
609.000	-23.521	
609.100	-24.508	
609.200	-31.056	
609.300	-43.493	
609.400	-18.831	
609.500	-3.652	
609.600	-34.317	
609.700	-18.871	
609.800	-29.453	
609.900	-11.142	
610.000	-25.476	
610.100	-44.177	
610.200	-25.406	
610.300	-31.344	
610.400	-33.916	
610.500	-9.619	
610.600	-41.900	
610.700	-0.749	
610.800	-19.354	
610.900	-13.008	
611.000	-41.344	
611.100	-23.998	
611.200	-29.144	
611.300	-9.649	
611.400	-35.552	
611.500	-36.782	
611.600	-7.609	
611.700	-29.301	
611.800	6.556	
611.900	-21.849	
612.000	-47.735	
612.100	-13.557	
612.200	-32.207	
612.300	10.658	
612.400	-35.556	
612.500	-17.848	
612.600	-50.258	
612.700	-43.327	
612.800	-24.642	
612.900	-21.983	
613.000	-8.239	
613.100	-24.264	
613.200	-33.538	
613.300	-51.620	
613.400	-14.658	
613.500	-18.626	
613.600	-17.616	
613.700	-13.316	
613.800	-15.010	
613.900	-30.520	
614.000	-25.489	
614.100	-22.374	
614.200	-19.091	
614.300	-16.076	
614.400	-38.856	
614.500	-39.941	
614.600	-28.689	
614.700	-9.720	
614.800	-22.891	
614.900	-18.907	
615.000	-17.337	
615.100	-17.478	
615.200	-37.476	
615.300	-31.323	
615.400	-46.704	
615.500	-39.302	
615.600	-16.861	
615.700	-39.063	
615.800	-34.773	
615.900	-7.869	
616.000	-24.295	
616.100	-24.932	
616.200	-45.004	
616.300	-14.501	
616.400	0.404	
616.500	-20.629	
616.600	-24.288	
616.700	-30.454	
616.800	-25.037	
616.900	-18.108	
617.000	-8.529	
617.100	-24.873	
617.200	-12.103	
617.300	-32.473	
617.400	-25.991	
617.500	-27.848	
617.600	-15.944	
617.700	-20.175	
617.800	-15.554	
617.900	-33.277	
618.000	-26.551	
618.100	-37.202	
618.200	-11.807	
618.300	-23.410	
618.400	-5.860	
618.500	-16.367	
618.600	-29.074	
618.700	-22.947	
618.800	-27.570	
618.900	-26.457	
619.000	-26.952	
619.100	-23.658	
619.200	-24.821	
619.300	-10.973	
619.400	-9.978	
619.500	-19.004	
619.600	-25.327	
619.700	-42.422	
619.800	-12.925	
619.900	-10.601	
620.000	-25.624	
620.100	-20.960	
620.200	-21.267	
620.300	-38.664	
620.400	-21.291	
620.500	-9.824	
620.600	-31.940	
620.700	-13.561	
620.800	-26.425	
620.900	-17.819	
621.000	-32.623	
621.100	1.275	
621.200	-24.446	
621.300	-23.177	
621.400	-25.091	
621.500	-19.667	
621.600	-18.336	
621.700	2.573	
621.800	-24.567	
621.900	-29.676	
622.000	-39.066	
622.100	-44.432	
622.200	-8.813	
622.300	-14.753	
622.400	-7.490	
622.500	-26.971	
622.600	-14.260	
622.700	-19.664	
622.800	-16.051	
622.900	-16.295	
623.000	-30.944	
623.100	-36.390	
623.200	-10.965	
623.300	-5.437	
623.400	-17.024	
623.500	-9.472	
623.600	-24.602	
623.700	-21.573	
623.800	-42.255	
623.900	-13.960	
624.000	-16.871	
624.100	3.540	
624.200	-30.938	
624.300	-38.182	
624.400	-13.225	
624.500	-6.803	
624.600	-6.328	
624.700	-17.933	
624.800	-25.656	
624.900	-29.615	
625.000	-4.264	
625.100	-5.472	
625.200	-14.015	
625.300	-6.779	
625.400	-23.165	
625.500	-22.157	
625.600	-37.464	
625.700	-35.120	
625.800	-17.121	
625.900	-14.824	
626.000	-19.033	
626.100	-3.548	
626.200	-26.360	
626.300	-11.580	
626.400	-24.684	
626.500	-29.131	
626.600	-15.883	
626.700	-21.435	
626.800	-12.473	
626.900	-6.485	
627.000	-27.360	
627.100	-34.785	
627.200	-37.353	
627.300	-17.480	
627.400	-13.671	
627.500	-13.049	
627.600	-12.462	
627.700	-24.667	
627.800	-29.634	
627.900	-44.979	
628.000	-17.794	
628.100	-1.030	
628.200	-23.414	
628.300	-15.180	
628.400	-52.963	
628.500	-18.122	
628.600	-14.520	
628.700	-26.659	
628.800	-33.501	
628.900	-27.927	
629.000	-34.508	
629.100	-28.386	
629.200	-21.207	
629.300	-12.035	
629.400	-26.190	
629.500	-24.421	
629.600	-8.121	
629.700	-19.321	
629.800	-24.461	
629.900	-16.541	
630.000	-16.207	
630.100	-26.632	
630.200	-13.819	
630.300	-13.896	
630.400	-21.638	
630.500	2.861	
630.600	-3.961	
630.700	-10.393	
630.800	-13.394	
630.900	-16.021	
631.000	-13.732	
631.100	28.855	
631.200	16.714	
631.300	1.525	
631.400	7.024	
631.500	-0.181	
631.600	9.658	
631.700	4.585	
631.800	3.924	
631.900	-10.511	
632.000	-4.654	
632.100	15.872	
632.200	14.713	
632.300	8.209	
632.400	-11.328	
632.500	2.461	
632.600	10.010	
632.700	26.668	
632.800	11.401	
632.900	-18.262	
633.000	29.573	
633.100	-3.852	
633.200	1.932	
633.300	6.821	
633.400	24.228	
633.500	12.298	
633.600	9.514	
633.700	4.467	
633.800	-16.183	
633.900	14.958	
634.000	24.378	
634.100	-0.903	
634.200	5.111	
634.300	-1.898	
634.400	5.720	
634.500	12.011	
634.600	6.260	
634.700	-3.132	
634.800	4.163	
634.900	-6.053	
635.000	18.463	
635.100	15.720	
635.200	9.805	
635.300	9.347	
635.400	-6.358	
635.500	1.018	
635.600	20.597	
635.700	30.522	
635.800	10.160	
635.900	15.905	
636.000	6.625	
636.100	-10.340	
636.200	1.783	
636.300	17.159	
636.400	17.386	
636.500	20.834	
636.600	-1.926	
636.700	12.900	
636.800	14.491	
636.900	11.289	
637.000	11.042	
637.100	14.276	
637.200	6.437	
637.300	-0.138	
637.400	-5.871	
637.500	26.337	
637.600	8.681	
637.700	7.373	
637.800	8.801	
637.900	24.581	
638.000	0.206	
638.100	28.716	
638.200	7.659	
638.300	19.394	
638.400	6.806	
638.500	30.315	
638.600	7.692	
638.700	9.500	
638.800	-0.381	
638.900	21.528	
639.000	10.648	
639.100	17.973	
639.200	6.452	
639.300	16.249	
639.400	-0.580	
639.500	23.690	
639.600	10.145	
639.700	17.581	
639.800	28.926	
639.900	4.681	
640.000	4.339	
640.100	18.761	
640.200	39.178	
640.300	20.056	
640.400	9.203	
640.500	9.473	
640.600	11.590	
640.700	17.998	
640.800	10.379	
640.900	28.928	
641.000	17.983	
641.100	17.118	
641.200	5.195	
641.300	16.912	
641.400	22.787	
641.500	26.770	
641.600	-6.579	
641.700	31.513	
641.800	14.306	
641.900	-5.900	
642.000	35.507	
642.100	45.924	
642.200	34.973	
642.300	35.795	
642.400	17.413	
642.500	42.686	
642.600	27.549	
642.700	35.394	
642.800	23.827	
642.900	11.040	
643.000	18.062	
643.100	5.416	
643.200	37.299	
643.300	31.366	
643.400	45.208	
643.500	30.269	
643.600	14.771	
643.700	25.250	
643.800	33.250	
643.900	28.565	
644.000	51.227	
644.100	39.593	
644.200	37.160	
644.300	27.724	
644.400	37.228	
644.500	38.748	
644.600	26.162	
644.700	31.482	
644.800	31.385	
644.900	23.773	
645.000	16.867	
645.100	56.183	
645.200	25.270	
645.300	33.328	
645.400	34.993	
645.500	42.050	
645.600	49.390	
645.700	50.349	
645.800	62.641	
645.900	53.795	
646.000	36.364	
646.100	51.016	
646.200	61.908	
646.300	54.349	
646.400	61.400	
646.500	29.579	
646.600	29.523	
646.700	55.710	
646.800	54.480	
646.900	42.863	
647.000	41.198	
647.100	36.431	
647.200	41.296	
647.300	61.848	
647.400	80.505	
647.500	50.024	
647.600	62.556	
647.700	63.241	
647.800	42.172	
647.900	51.327	
648.000	50.639	
648.100	53.406	
648.200	54.940	
648.300	65.777	
648.400	66.045	
648.500	56.579	
648.600	42.591	
648.700	65.790	
648.800	60.243	
648.900	46.773	
649.000	70.583	
649.100	68.297	
649.200	70.683	
649.300	66.850	
649.400	47.057	
649.500	62.299	
649.600	67.243	
649.700	49.734	
649.800	64.521	
649.900	42.852	
650.000	68.648	
650.100	54.605	
650.200	64.079	
650.300	83.113	
650.400	75.512	
650.500	76.697	
650.600	51.207	
650.700	39.997	
650.800	70.670	
650.900	73.619	
651.000	75.419	
651.100	54.564	
651.200	76.304	
651.300	70.816	
651.400	72.205	
651.500	59.871	
651.600	73.185	
651.700	66.727	
651.800	66.325	
651.900	87.888	
652.000	83.067	
652.100	72.606	
652.200	68.486	
652.300	51.011	
652.400	49.044	
652.500	64.303	
652.600	76.966	
652.700	66.289	
652.800	60.791	
652.900	68.371	
653.000	71.676	
653.100	61.832	
653.200	85.501	
653.300	81.030	
653.400	44.134	
653.500	72.222	
653.600	69.313	
653.700	44.975	
653.800	75.044	
653.900	74.020	
654.000	66.552	
654.100	60.326	
654.200	52.103	
654.300	67.725	
654.400	63.022	
654.500	64.794	
654.600	66.338	
654.700	45.953	
654.800	64.841	
654.900	50.293	
655.000	64.221	
655.100	51.066	
655.200	55.832	
655.300	65.313	
655.400	45.139	
655.500	54.521	
655.600	83.826	
655.700	58.869	
655.800	35.857	
655.900	80.677	
656.000	77.419	
656.100	61.855	
656.200	55.418	
656.300	53.549	
656.400	61.728	
656.500	50.515	
656.600	43.104	
656.700	67.026	
656.800	85.564	
656.900	64.474	
657.000	65.893	
657.100	36.529	
657.200	49.944	
657.300	82.733	
657.400	66.193	
657.500	66.920	
657.600	65.820	
657.700	54.097	
657.800	69.784	
657.900	68.018	
658.000	42.178	
658.100	69.545	
658.200	74.354	
658.300	67.488	
658.400	58.674	
658.500	62.827	
658.600	43.705	
658.700	79.300	
658.800	52.727	
658.900	47.741	
659.000	63.295	
659.100	70.466	
659.200	58.611	
659.300	52.653	
659.400	42.859	
659.500	50.034	
659.600	74.251	
659.700	74.410	
659.800	76.269	
659.900	34.886	
660.000	46.527	
660.100	62.942	
660.200	86.649	
660.300	75.816	
660.400	50.061	
660.500	52.714	
660.600	69.276	
660.700	60.499	
660.800	51.207	
660.900	71.443	
661.000	65.888	
661.100	61.429	
661.200	64.845	
661.300	58.425	
661.400	60.127	
661.500	58.353	
661.600	46.833	
661.700	59.289	
661.800	47.800	
661.900	80.397	
662.000	54.682	
662.100	72.198	
662.200	46.998	
662.300	42.081	
662.400	52.333	
662.500	60.496	
662.600	72.358	
662.700	58.735	
662.800	52.296	
662.900	42.950	
663.000	71.299	
663.100	62.786	
663.200	63.221	
663.300	57.897	
663.400	51.252	
663.500	54.246	
663.600	66.149	
663.700	68.085	
663.800	56.502	
663.900	38.719	
664.000	50.719	
664.100	72.947	
664.200	76.817	
664.300	75.343	
664.400	60.318	
664.500	64.681	
664.600	43.710	
664.700	52.226	
664.800	56.143	
664.900	36.900	
665.000	68.586	
665.100	75.119	
665.200	53.986	
665.300	47.831	
665.400	34.028	
665.500	55.263	
665.600	74.295	
665.700	67.067	
665.800	49.689	
665.900	39.022	
666.000	34.630	
666.100	61.443	
666.200	35.188	
666.300	35.200	
666.400	60.483	
666.500	51.319	
666.600	49.064	
666.700	61.056	
666.800	61.230	
666.900	50.610	
667.000	45.057	
667.100	54.713	
667.200	70.240	
667.300	54.130	
667.400	58.992	
667.500	52.840	
667.600	54.809	
667.700	79.776	
667.800	45.649	
667.900	59.943	
668.000	49.736	
668.100	34.901	
668.200	57.792	
668.300	42.296	
668.400	71.036	
668.500	56.735	
668.600	44.220	
668.700	53.772	
668.800	54.730	
668.900	63.892	
669.000	59.569	
669.100	48.340	
669.200	53.705	
669.300	56.136	
669.400	57.601	
669.500	50.438	
669.600	63.939	
669.700	67.281	
669.800	44.896	
669.900	43.498	
670.000	33.850	
670.100	56.943	
670.200	70.468	
670.300	67.454	
670.400	67.094	
670.500	38.067	
670.600	48.809	
670.700	64.961	
670.800	52.759	
670.900	51.288	
671.000	66.934	
671.100	70.643	
671.200	51.945	
671.300	65.390	
671.400	64.138	
671.500	57.123	
671.600	54.976	
671.700	41.907	
671.800	65.478	
671.900	60.754	
672.000	51.490	
672.100	62.800	
672.200	47.504	
672.300	48.320	
672.400	56.966	
672.500	64.905	
672.600	63.719	
672.700	59.490	
672.800	35.458	
672.900	47.525	
673.000	49.716	
673.100	59.397	
673.200	59.554	
673.300	23.775	
673.400	35.972	
673.500	50.772	
673.600	66.403	
673.700	65.893	
673.800	73.839	
673.900	45.930	
674.000	63.199	
674.100	51.321	
674.200	31.316	
674.300	64.967	
674.400	65.734	
674.500	63.291	
674.600	42.968	
674.700	49.959	
674.800	69.232	
674.900	63.558	
675.000	66.585	
675.100	29.049	
675.200	50.724	
675.300	59.730	
675.400	62.072	
675.500	71.811	
675.600	48.261	
675.700	46.869	
675.800	33.720	
675.900	55.241	
676.000	52.146	
676.100	55.207	
676.200	51.319	
676.300	59.303	
676.400	52.667	
676.500	54.428	
676.600	58.372	
676.700	63.205	
676.800	66.011	
676.900	38.040	
677.000	63.129	
677.100	41.835	
677.200	65.542	
677.300	76.108	
677.400	54.234	
677.500	31.322	
677.600	57.321	
677.700	62.840	
677.800	46.709	
677.900	41.661	
678.000	64.078	
678.100	44.324	
678.200	33.153	
678.300	59.712	
678.400	66.053	
678.500	39.429	
678.600	43.778	
678.700	66.617	
678.800	49.899	
678.900	72.735	
679.000	53.835	
679.100	52.257	
679.200	40.889	
679.300	57.386	
679.400	58.678	
679.500	59.765	
679.600	24.868	
679.700	62.314	
679.800	67.250	
679.900	44.468	
680.000	49.636	
680.100	61.960	
680.200	63.749	
680.300	55.052	
680.400	51.739	
680.500	51.285	
680.600	55.387	
680.700	50.855	
680.800	67.045	
680.900	69.178	
681.000	43.949	
681.100	49.619	
681.200	28.637	
681.300	62.212	
681.400	65.361	
681.500	45.178	
681.600	40.051	
681.700	40.053	
681.800	67.081	
681.900	41.296	
682.000	63.613	
682.100	58.624	
682.200	41.150	
682.300	35.854	
682.400	47.768	
682.500	65.664	
682.600	50.482	
682.700	46.937	
682.800	52.111	
682.900	60.756	
683.000	46.562	
683.100	74.956	
683.200	55.174	
683.300	31.848	
683.400	49.215	
683.500	66.860	
683.600	63.388	
683.700	66.416	
683.800	33.765	
683.900	62.497	
684.000	59.711	
684.100	26.679	
684.200	72.181	
684.300	70.054	
684.400	53.881	
684.500	41.593	
684.600	43.039	
684.700	43.494	
684.800	58.031	
684.900	51.118	
685.000	37.537	
685.100	38.960	
685.200	44.516	
685.300	47.517	
685.400	63.659	
685.500	40.126	
685.600	65.119	
685.700	46.595	
685.800	45.227	
685.900	51.994	
686.000	54.920	
686.100	55.464	
686.200	64.494	
686.300	47.287	
686.400	40.813	
686.500	59.613	
686.600	59.654	
686.700	50.532	
686.800	30.633	
686.900	30.405	
687.000	62.374	
687.100	68.688	
687.200	73.452	
687.300	34.154	
687.400	46.271	
687.500	25.770	
687.600	56.235	
687.700	70.410	
687.800	59.607	
687.900	45.329	
688.000	66.169	
688.100	62.875	
688.200	58.862	
688.300	57.756	
688.400	45.033	
688.500	41.452	
688.600	46.856	
688.700	67.587	
688.800	65.950	
688.900	55.840	
689.000	63.879	
689.100	58.968	
689.200	53.527	
689.300	49.409	
689.400	69.196	
689.500	31.242	
689.600	46.583	
689.700	31.212	
689.800	46.440	
689.900	44.920	
690.000	67.134	
690.100	66.179	
690.200	64.538	
690.300	59.551	
690.400	39.899	
690.500	62.456	
690.600	59.776	
690.700	21.142	
690.800	57.292	
690.900	61.095	
691.000	37.946	
691.100	34.731	
691.200	24.542	
691.300	45.744	
691.400	19.729	
691.500	26.426	
691.600	17.927	
691.700	18.144	
691.800	28.418	
691.900	35.337	
692.000	26.882	
692.100	19.924	
692.200	14.804	
692.300	19.721	
692.400	11.815	
692.500	9.809	
692.600	16.250	
692.700	2.041	
692.800	9.154	
692.900	6.035	
693.000	32.412	
693.100	13.834	
693.200	-4.399	
693.300	12.298	
693.400	28.421	
693.500	7.819	
693.600	7.354	
693.700	-6.723	
693.800	-3.770	
693.900	-2.470	
694.000	-1.138	
694.100	4.420	
694.200	25.975	
694.300	-5.558	
694.400	-2.267	
694.500	-0.717	
694.600	9.872	
694.700	13.349	
694.800	18.012	
694.900	-17.989	
695.000	-23.767	
695.100	-2.837	
695.200	14.352	
695.300	11.164	
695.400	-16.636	
695.500	-7.145	
695.600	0.488	
695.700	2.565	
695.800	-13.902	
695.900	-2.927	
696.000	-0.466	
696.100	-35.220	
696.200	-8.786	
696.300	-8.798	
696.400	21.850	
696.500	15.184	
696.600	-27.872	
696.700	16.499	
696.800	-11.212	
696.900	-27.661	
697.000	7.309	
697.100	16.300	
697.200	-8.072	
697.300	-13.789	
697.400	-1.949	
697.500	9.428	
697.600	16.887	
697.700	4.890	
697.800	-2.244	
697.900	-19.634	
698.000	-20.275	
698.100	-13.620	
698.200	6.151	
698.300	-1.611	
698.400	-16.699	
698.500	-23.890	
698.600	6.931	
698.700	-12.972	
698.800	12.647	
698.900	-19.313	
699.000	8.559	
699.100	-27.784	
699.200	-10.454	
699.300	-13.442	
699.400	0.091	
699.500	-19.558	
699.600	-18.423	
699.700	-17.679	
699.800	-36.729	
699.900	1.758	
700.000	-26.065	
700.100	6.365	
700.200	-8.933	
700.300	-28.911	
700.400	-13.776	
700.500	-1.147	
700.600	-10.958	
700.700	13.271	
700.800	-5.226	
700.900	-14.345	
701.000	-15.359	
701.100	-9.111	
701.200	-16.270	
701.300	-16.713	
701.400	-18.369	
701.500	-31.151	
701.600	-23.098	
701.700	10.518	
701.800	-1.620	
701.900	-33.423	
702.000	-17.453	
702.100	-39.981	
702.200	0.227	
702.300	-9.892	
702.400	8.983	
702.500	-27.462	
702.600	-14.447	
702.700	-22.030	
702.800	-13.208	
702.900	-19.908	
703.000	-27.465	
703.100	-31.395	
703.200	-17.263	
703.300	-20.981	
703.400	-23.017	
703.500	-16.516	
703.600	-5.377	
703.700	-21.332	
703.800	-24.836	
703.900	-16.320	
704.000	-25.574	
704.100	-17.767	
704.200	-18.814	
704.300	-19.677	
704.400	-40.939	
704.500	-2.459	
704.600	6.275	
704.700	9.608	
704.800	-27.657	
704.900	-42.994	
705.000	-13.517	
705.100	2.668	
705.200	-12.870	
705.300	-27.253	
705.400	-25.967	
705.500	-40.241	
705.600	-27.988	
705.700	-1.532	
705.800	-32.748	
705.900	-10.489	
706.000	-9.092	
706.100	-6.493	
706.200	-45.772	
706.300	-10.690	
706.400	-10.665	
706.500	-7.546	
706.600	-25.626	
706.700	-47.453	
706.800	-18.727	
706.900	-8.395	
707.000	-34.356	
707.100	-24.246	
707.200	-34.048	
707.300	-18.122	
707.400	-5.724	
707.500	-12.199	
707.600	-15.967	
707.700	-27.687	
707.800	-47.298	
707.900	-7.863	
708.000	-19.636	
708.100	-22.124	
708.200	-1.891	
708.300	-20.684	
708.400	-22.542	
708.500	-44.433	
708.600	-21.981	
708.700	-19.420	
708.800	-30.148	
708.900	-7.173	
709.000	-37.666	
709.100	-48.828	
709.200	-31.418	
709.300	-29.066	
709.400	-11.869	
709.500	-26.707	
709.600	-31.222	
709.700	-45.828	
709.800	-18.754	
709.900	-22.660	
710.000	-25.475	
710.100	-23.024	
710.200	-49.223	
710.300	-22.806	
710.400	-29.810	
710.500	-0.973	
710.600	-44.440	
710.700	-27.935	
710.800	-27.392	
710.900	-39.685	
711.000	-26.985	
711.100	-7.896	
711.200	-32.970	
711.300	-25.640	
711.400	-32.513	
711.500	-20.904	
711.600	-9.985	
711.700	-27.036	
711.800	-18.171	
711.900	-9.031	
712.000	-47.800	
712.100	-31.000	
712.200	-23.899	
712.300	-22.546	
712.400	-16.424	
712.500	-29.569	
712.600	-30.460	
712.700	-18.480	
712.800	-27.591	
712.900	-33.872	
713.000	-25.432	
713.100	-44.608	
713.200	-42.507	
713.300	-43.160	
713.400	-26.762	
713.500	-12.780	
713.600	-30.471	
713.700	-38.830	
713.800	-16.259	
713.900	-45.971	
714.000	-14.009	
714.100	-48.568	
714.200	-37.538	
714.300	-30.387	
714.400	-28.572	
714.500	-31.638	
714.600	-10.326	
714.700	-10.847	
714.800	-29.900	
714.900	-57.373	
715.000	-32.187	
715.100	-42.635	
715.200	-13.305	
715.300	-40.816	
715.400	-30.814	
715.500	-43.594	
715.600	-26.377	
715.700	-28.277	
715.800	-39.610	
715.900	-31.639	
716.000	-21.837	
716.100	-26.212	
716.200	-33.770	
716.300	-21.272	
716.400	-43.648	
716.500	-13.013	
716.600	-24.519	
716.700	-9.664	
716.800	-23.744	
716.900	-53.364	
717.000	-52.195	
717.100	-16.997	
717.200	-44.000	
717.300	-29.702	
717.400	-21.186	
717.500	-30.546	
717.600	-31.056	
717.700	-40.347	
717.800	-37.570	
717.900	-41.597	
718.000	-3.369	
718.100	-42.249	
718.200	-35.234	
718.300	-23.048	
718.400	-29.392	
718.500	-29.832	
718.600	-51.967	
718.700	-19.270	
718.800	-17.037	
718.900	-39.448	
719.000	-15.631	
719.100	-35.499	
719.200	-28.494	
719.300	-20.263	
719.400	-30.709	
719.500	-39.396	
719.600	-28.446	
719.700	-17.754	
719.800	-17.145	
719.900	-36.982	
720.000	-29.796	
720.100	-29.752	
720.200	-39.735	
720.300	-28.861	
720.400	-23.234	
720.500	-16.224	
720.600	-34.032	
720.700	-67.558	
720.800	-28.314	
720.900	-9.409	
721.000	-12.804	
721.100	-32.780	
721.200	-26.964	
721.300	-44.678	
721.400	-36.423	
721.500	-41.108	
721.600	-22.686	
721.700	-34.927	
721.800	-15.485	
721.900	-48.604	
722.000	-29.771	
722.100	-26.691	
722.200	-23.630	
722.300	-24.480	
722.400	-39.946	
722.500	-38.533	
722.600	-35.517	
722.700	-14.868	
722.800	-19.903	
722.900	-47.084	
723.000	-32.335	
723.100	-51.678	
723.200	-17.013	
723.300	-11.049	
723.400	-32.164	
723.500	-31.906	
723.600	-26.689	
723.700	-23.719	
723.800	-23.148	
723.900	-19.167	
724.000	-44.624	
724.100	-39.460	
724.200	-23.948	
724.300	-28.994	
724.400	-20.092	
724.500	-13.064	
724.600	-19.748	
724.700	-32.227	
724.800	-36.512	
724.900	-35.370	
725.000	-27.978	
725.100	-22.368	
725.200	-20.632	
725.300	-20.204	
725.400	-48.775	
725.500	-25.625	
725.600	-19.477	
725.700	-13.110	
725.800	-17.568	
725.900	-45.364	
726.000	-38.229	
726.100	-18.380	
726.200	-27.333	
726.300	-30.439	
726.400	-25.889	
726.500	-31.762	
726.600	-22.366	
726.700	-35.220	
726.800	-29.317	
726.900	-24.130	
727.000	-31.345	
727.100	-39.811	
727.200	-22.200	
727.300	-31.327	
727.400	-25.971	
727.500	-33.112	
727.600	-42.249	
727.700	-25.687	
727.800	-43.370	
727.900	-65.982	
728.000	-10.675	
728.100	-30.083	
728.200	-43.846	
728.300	-13.877	
728.400	-30.599	
728.500	-30.351	
728.600	-15.884	
728.700	-32.090	
728.800	-32.396	
728.900	-38.673	
729.000	-59.987	
729.100	-13.287	
729.200	-20.609	
729.300	-39.629	
729.400	-28.723	
729.500	-48.872	
729.600	-27.159	
729.700	-19.069	
729.800	-37.811	
729.900	-29.182	
730.000	-31.041	
730.100	-39.266	
730.200	-20.799	
730.300	-46.527	
730.400	-13.713	
730.500	-28.419	
730.600	-41.053	
730.700	-42.424	
730.800	-32.484	
730.900	-21.126	
731.000	-40.356	
731.100	-40.929	
731.200	-18.585	
731.300	-20.804	
731.400	-18.069	
731.500	-4.409	
731.600	-20.318	
731.700	-42.674	
731.800	-33.961	
731.900	-41.575	
732.000	-36.475	
732.100	-27.779	
732.200	-30.400	
732.300	-33.834	
732.400	-26.137	
732.500	-45.344	
732.600	-13.694	
732.700	-20.337	
732.800	-28.914	
732.900	-38.290	
733.000	-27.396	
733.100	-30.456	
733.200	-28.751	
733.300	-31.443	
733.400	-33.813	
733.500	-31.300	
733.600	-28.479	
733.700	-42.366	
733.800	-13.301	
733.900	-15.898	
734.000	-19.788	
734.100	-17.149	
734.200	-33.053	
734.300	-50.048	
734.400	-16.299	
734.500	-10.338	
734.600	-47.629	
734.700	-26.771	
734.800	-45.306	
734.900	-29.425	
735.000	-36.585	
735.100	-16.176	
735.200	-24.866	
735.300	-37.781	
735.400	-21.315	
735.500	-3.610	
735.600	-37.584	
735.700	-24.814	
735.800	-39.010	
735.900	-18.684	
736.000	-44.321	
736.100	-23.631	
736.200	-40.256	
736.300	-19.563	
736.400	-21.740	
736.500	-33.668	
736.600	-36.523	
736.700	-43.421	
736.800	-38.523	
736.900	-22.991	
737.000	-21.242	
737.100	-43.924	
737.200	-18.790	
737.300	4.514	
737.400	-12.543	
737.500	-10.221	
737.600	-17.402	
737.700	-42.889	
737.800	-27.067	
737.900	-32.352	
738.000	-39.413	
738.100	-19.972	
738.200	-32.548	
738.300	-32.176	
738.400	-32.836	
738.500	-34.043	
738.600	-20.071	
738.700	-31.273	
738.800	-14.294	
738.900	-27.973	
739.000	-24.725	
739.100	-28.235	
739.200	-24.673	
739.300	-27.255	
739.400	-34.002	
739.500	-48.231	
739.600	-30.482	
739.700	-10.574	
739.800	-9.826	
739.900	-42.979	
740.000	-43.620	
740.100	-41.074	
740.200	6.488	
740.300	-0.958	
740.400	-19.709	
740.500	-43.469	
740.600	-44.627	
740.700	-23.784	
740.800	-39.325	
740.900	-19.167	
741.000	-44.268	
741.100	-47.544	
741.200	-26.896	
741.300	-10.473	
741.400	-12.929	
741.500	-32.852	
741.600	-40.817	
741.700	-17.467	
741.800	-21.827	
741.900	-17.856	
742.000	-21.268	
742.100	-24.416	
742.200	-26.772	
742.300	-45.304	
742.400	-31.454	
742.500	-20.723	
742.600	-22.633	
742.700	1.748	
742.800	-10.679	
742.900	-47.706	
743.000	-45.137	
743.100	-16.360	
743.200	-25.617	
743.300	-26.683	
743.400	-51.888	
743.500	-33.247	
743.600	-47.300	
743.700	-4.202	
743.800	-19.628	
743.900	-28.394	
744.000	-30.627	
744.100	-32.532	
744.200	-28.453	
744.300	-45.109	
744.400	-21.225	
744.500	-10.990	
744.600	-9.652	
744.700	-15.671	
744.800	-37.941	
744.900	-33.317	
745.000	-24.121	
745.100	-38.795	
745.200	-15.635	
745.300	-38.853	
745.400	-21.890	
745.500	-3.305	
745.600	-12.096	
745.700	-32.684	
745.800	-33.599	
745.900	-28.328	
746.000	-23.055	
746.100	-21.476	
746.200	-15.461	
746.300	-25.930	
746.400	-50.004	
746.500	-20.682	
746.600	-18.798	
746.700	-0.579	
746.800	-29.471	
746.900	-26.686	
747.000	-17.782	
747.100	-45.120	
747.200	-27.049	
747.300	-27.318	
747.400	-39.707	
747.500	-24.606	
747.600	-42.094	
747.700	-9.642	
747.800	-22.582	
747.900	-35.289	
748.000	-27.023	
748.100	-40.739	
748.200	-26.414	
748.300	-36.980	
748.400	-26.411	
748.500	-3.914	
748.600	-25.769	
748.700	-29.087	
748.800	-21.127	
748.900	-50.114	
749.000	-19.057	
749.100	-27.382	
749.200	7.414	
749.300	-17.190	
749.400	-43.024	
749.500	-29.436	
749.600	-26.042	
749.700	-26.949	
749.800	-21.790	
749.900	-29.460	
750.000	-23.058	
750.100	0.196	
750.200	-22.689	
750.300	0.226	
750.400	-23.956	
750.500	-26.462	
750.600	-24.726	
750.700	-49.980	
750.800	-7.209	
750.900	-21.569	
751.000	-30.190	
751.100	-39.732	
751.200	-38.228	
751.300	-36.627	
751.400	-49.669	
751.500	-17.063	
751.600	-21.082	
751.700	-22.493	
751.800	-23.574	
751.900	-32.298	
752.000	-15.131	
752.100	-26.663	
752.200	-26.515	
752.300	-20.574	
752.400	-30.920	
752.500	-28.266	
752.600	-23.793	
752.700	-24.896	
752.800	-16.925	
752.900	-25.762	
753.000	-17.002	
753.100	-27.084	
753.200	-56.996	
753.300	-9.189	
753.400	-19.834	
753.500	-34.529	
753.600	-13.038	
753.700	-9.145	
753.800	-10.745	
753.900	-35.071	
754.000	-25.071	
754.100	-12.377	
754.200	-17.689	
754.300	-16.741	
754.400	-30.500	
754.500	-37.224	
754.600	-34.087	
754.700	-17.713	
754.800	-23.369	
754.900	-13.303	
755.000	-19.936	
755.100	-14.471	
755.200	-35.234	
755.300	-24.799	
755.400	-43.879	
755.500	-32.898	
755.600	-4.642	
755.700	-35.297	
755.800	-39.942	
755.900	-18.788	
756.000	-37.678	
756.100	-21.414	
756.200	-12.760	
756.300	-23.146	
756.400	-32.693	
756.500	-29.510	
756.600	-43.324	
756.700	-19.276	
756.800	-14.337	
756.900	-41.000	
757.000	-27.141	
757.100	-38.610	
757.200	-18.199	
757.300	-19.061	
757.400	-19.137	
757.500	-34.492	
757.600	-22.532	
757.700	-6.371	
757.800	-24.895	
757.900	-19.489	
758.000	-26.924	
758.100	-23.458	
758.200	-31.420	
758.300	-16.611	
758.400	-16.933	
758.500	-39.411	
758.600	5.403	
758.700	-29.825	
758.800	-8.429	
758.900	-47.826	
759.000	-16.512	
759.100	-13.733	
759.200	-20.148	
759.300	-40.008	
759.400	-36.663	
759.500	-22.130	
759.600	-46.275	
759.700	-19.298	
759.800	-46.434	
759.900	-33.822	
760.000	-12.126	
760.100	-16.549	
760.200	-10.776	
760.300	-38.545	
760.400	-36.882	
760.500	-42.098	
760.600	-10.499	
760.700	-25.969	
760.800	-31.925	
760.900	-23.450	
761.000	-24.297	
761.100	-29.201	
761.200	-24.893	
761.300	-23.262	
761.400	-19.814	
761.500	-23.289	
761.600	-24.612	
761.700	-37.523	
761.800	-26.955	
761.900	-18.401	
762.000	-27.593	
762.100	-38.097	
762.200	-23.695	
762.300	-15.294	
762.400	9.782	
762.500	-9.704	
762.600	-48.279	
762.700	-35.257	
762.800	-31.991	
762.900	-25.635	
763.000	-23.758	
763.100	-21.928	
763.200	-30.549	
763.300	-26.692	
763.400	-25.759	
763.500	-2.287	
763.600	2.420	
763.700	-17.051	
763.800	-51.271	
763.900	-33.197	
764.000	-31.578	
764.100	-39.142	
764.200	-16.083	
764.300	-19.589	
764.400	-27.911	
764.500	-34.203	
764.600	0.964	
764.700	-34.924	
764.800	-27.308	
764.900	-17.743	
765.000	-19.351	
765.100	-42.516	
765.200	-28.358	
765.300	-19.910	
765.400	-14.413	
765.500	-25.285	
765.600	-29.079	
765.700	-39.851	
765.800	-18.180	
765.900	-8.465	
766.000	-9.980	
766.100	-28.427	
766.200	-25.557	
766.300	-34.165	
766.400	-7.905	
766.500	-31.415	
766.600	-16.326	
766.700	-29.731	
766.800	-36.763	
766.900	-27.214	
767.000	-31.011	
767.100	-18.492	
767.200	-21.386	
767.300	-21.916	
767.400	-27.299	
767.500	-39.421	
767.600	-11.639	
767.700	-24.112	
767.800	-38.856	
767.900	-37.923	
768.000	-45.459	
768.100	-30.885	
768.200	-39.670	
768.300	-11.000	
768.400	-14.325	
768.500	-42.617	
768.600	-31.797	
768.700	-30.183	
768.800	-23.890	
768.900	-8.237	
769.000	-1.863	
769.100	-6.154	
769.200	-23.847	
769.300	-30.868	
769.400	-36.307	
769.500	-15.050	
769.600	-30.508	
769.700	-13.977	
769.800	-50.359	
769.900	-46.055	
770.000	-14.166	
770.100	-15.132	
770.200	-9.536	
770.300	-30.678	
770.400	-22.950	
770.500	-21.429	
770.600	-24.589	
770.700	-11.616	
770.800	-17.438	
770.900	-43.145	
771.000	-20.726	
771.100	-41.614	
771.200	-19.098	
771.300	-19.046	
771.400	-26.043	
771.500	-36.984	
771.600	-17.872	
771.700	-31.103	
771.800	-27.805	
771.900	-19.989	
772.000	-42.819	
772.100	-23.912	
772.200	-18.377	
772.300	-7.547	
772.400	-7.502	
772.500	-21.679	
772.600	-45.886	
772.700	-14.421	
772.800	-18.737	
772.900	-36.789	
773.000	3.563	
773.100	-11.365	
773.200	-24.714	
773.300	-26.186	
773.400	-36.302	
773.500	-17.419	
773.600	5.059	
773.700	-18.788	
773.800	-36.583	
773.900	-37.504	
774.000	-10.927	
774.100	-13.976	
774.200	-9.378	
774.300	-24.848	
774.400	-29.486	
774.500	-47.232	
774.600	-17.988	
774.700	-27.171	
774.800	-21.215	
774.900	-24.536	
775.000	-30.493	
775.100	-34.931	
775.200	-27.457	
775.300	-7.249	
775.400	-17.670	
775.500	-32.691	
775.600	-41.082	
775.700	-21.400	
775.800	-33.606	
775.900	-19.434	
776.000	-26.104	
776.100	-23.662	
776.200	-17.287	
776.300	-26.482	
776.400	-29.660	
776.500	-21.787	
776.600	-7.307	
776.700	-15.895	
776.800	-13.809	
776.900	-45.169	
777.000	12.019	
777.100	-9.916	
777.200	-19.090	
777.300	-8.263	
777.400	-32.192	
777.500	-40.839	
777.600	-38.975	
777.700	-17.093	
777.800	-19.538	
777.900	-38.573	
778.000	-7.072	
778.100	-28.353	
778.200	-11.085	
778.300	-17.084	
778.400	-34.397	
778.500	-24.330	
778.600	-33.735	
778.700	-64.479	
778.800	3.734	
778.900	-25.838	
779.000	-37.789	
779.100	-36.219	
779.200	-24.393	
779.300	-22.662	
779.400	-19.127	
779.500	-15.547	
779.600	-11.894	
779.700	-26.501	
779.800	-36.708	
779.900	-28.272	
780.000	-23.839	
780.100	-1.728	
780.200	-51.346	
780.300	-32.098	
780.400	-7.667	
780.500	-0.695	
780.600	-8.656	
780.700	-2.754	
780.800	-21.948	
780.900	-9.668	
781.000	-0.452	
781.100	-6.031	
781.200	-1.448	
781.300	6.301	
781.400	-5.152	
781.500	-7.432	
781.600	0.575	
781.700	11.638	
781.800	18.922	
781.900	2.816	
782.000	7.800	
782.100	8.295	
782.200	-7.653	
782.300	18.038	
782.400	11.252	
782.500	11.445	
782.600	21.062	
782.700	-28.148	
782.800	6.437	
782.900	1.519	
783.000	0.067	
783.100	8.210	
783.200	2.503	
783.300	-2.003	
783.400	8.924	
783.500	17.894	
783.600	4.284	
783.700	0.506	
783.800	-0.261	
783.900	1.801	
784.000	10.479	
784.100	7.797	
784.200	14.725	
784.300	-10.212	
784.400	-11.438	
784.500	16.648	
784.600	13.122	
784.700	15.803	
784.800	10.510	
784.900	-7.185	
785.000	12.610	
785.100	3.764	
785.200	13.173	
785.300	12.045	
785.400	5.586	
785.500	-1.457	
785.600	10.857	
785.700	11.161	
785.800	-14.206	
785.900	13.879	
786.000	12.694	
786.100	-2.689	
786.200	13.743	
786.300	-3.033	
786.400	7.590	
786.500	16.600	
786.600	17.236	
786.700	8.532	
786.800	20.439	
786.900	2.114	
787.000	8.761	
787.100	26.498	
787.200	0.358	
787.300	3.925	
787.400	-5.423	
787.500	15.166	
787.600	14.194	
787.700	0.023	
787.800	3.608	
787.900	16.521	
788.000	18.416	
788.100	27.030	
788.200	21.161	
788.300	-7.471	
788.400	16.518	
788.500	7.503	
788.600	3.440	
788.700	17.749	
788.800	22.941	
788.900	10.751	
789.000	12.613	
789.100	-1.180	
789.200	4.069	
789.300	22.061	
789.400	12.452	
789.500	14.996	
789.600	26.037	
789.700	5.071	
789.800	-3.445	
789.900	13.848	
790.000	29.413	
790.100	18.317	
790.200	12.075	
790.300	8.392	
790.400	10.779	
790.500	34.045	
790.600	-14.325	
790.700	19.397	
790.800	-4.667	
790.900	16.740	
791.000	-0.816	
791.100	39.448	
791.200	16.188	
791.300	14.390	
791.400	19.311	
791.500	5.027	
791.600	17.918	
791.700	36.685	
791.800	25.191	
791.900	3.574	
792.000	6.555	
792.100	7.804	
792.200	25.887	
792.300	10.074	
792.400	18.330	
792.500	33.662	
792.600	15.169	
792.700	19.530	
792.800	33.587	
792.900	38.322	
793.000	24.786	
793.100	-12.589	
793.200	48.431	
793.300	40.808	
793.400	38.774	
793.500	23.755	
793.600	-3.438	
793.700	29.321	
793.800	24.538	
793.900	24.859	
794.000	25.023	
794.100	10.101	
794.200	26.990	
794.300	-12.985	
794.400	5.515	
794.500	32.749	
794.600	48.243	
794.700	49.927	
794.800	38.223	
794.900	19.124	
795.000	30.575	
795.100	19.889	
795.200	46.659	
795.300	48.168	
795.400	27.967	
795.500	25.151	
795.600	34.084	
795.700	47.500	
795.800	30.258	
795.900	61.108	
796.000	44.231	
796.100	40.920	
796.200	46.906	
796.300	51.557	
796.400	49.759	
796.500	51.987	
796.600	33.648	
796.700	57.704	
796.800	52.822	
796.900	45.404	
797.000	43.083	
797.100	40.116	
797.200	58.058	
797.300	49.988	
797.400	43.873	
797.500	44.539	
797.600	57.574	
797.700	54.537	
797.800	41.904	
797.900	56.803	
798.000	64.320	
798.100	49.371	
798.200	55.885	
798.300	53.068	
798.400	66.483	
798.500	67.197	
798.600	48.409	
798.700	57.674	
798.800	65.643	
798.900	52.316	
799.000	66.883	
799.100	46.367	
799.200	66.230	
799.300	72.919	
799.400	72.786	
799.500	61.045	
799.600	43.916	
799.700	64.447	
799.800	70.601	
799.900	71.525	
800.000	47.346	
