time /s	I /nA	
0.100	36.309	
0.200	23.527	
0.300	13.888	
0.400	10.978	
0.500	-21.839	
0.600	18.239	
0.700	2.391	
0.800	0.530	
0.900	4.807	
1.000	9.732	
1.100	-1.298	
1.200	19.540	
1.300	-2.323	
1.400	-2.664	
1.500	9.093	
1.600	-2.336	
1.700	16.935	
1.800	3.684	
1.900	-12.493	
2.000	-9.753	
2.100	13.581	
2.200	4.932	
2.300	-0.501	
2.400	-13.391	
2.500	15.481	
2.600	-14.011	
2.700	25.762	
2.800	12.928	
2.900	-0.809	
3.000	-4.256	
3.100	-11.641	
3.200	-1.522	
3.300	-6.662	
3.400	11.074	
3.500	10.195	
3.600	2.518	
3.700	0.554	
3.800	29.220	
3.900	18.478	
4.000	-8.755	
4.100	8.750	
4.200	11.776	
4.300	1.408	
4.400	-11.368	
4.500	12.885	
4.600	-0.144	
4.700	-10.891	
4.800	6.182	
4.900	-3.200	
5.000	8.750	
5.100	9.232	
5.200	6.545	
5.300	-10.319	
5.400	-15.354	
5.500	3.284	
5.600	4.103	
5.700	-6.542	
5.800	13.797	
5.900	5.141	
6.000	-6.837	
6.100	-3.160	
6.200	-0.988	
6.300	27.506	
6.400	10.509	
6.500	0.516	
6.600	-16.939	
6.700	-15.274	
6.800	30.122	
6.900	2.046	
7.000	11.386	
7.100	-13.564	
7.200	-22.498	
7.300	1.841	
7.400	-4.344	
7.500	44.739	
7.600	-19.520	
7.700	-10.779	
7.800	-2.877	
7.900	0.563	
8.000	6.099	
8.100	7.791	
8.200	11.555	
8.300	3.606	
8.400	0.290	
8.500	-12.632	
8.600	0.119	
8.700	12.848	
8.800	-26.768	
8.900	-1.879	
9.000	-5.012	
9.100	10.877	
9.200	14.608	
9.300	-4.599	
9.400	-1.261	
9.500	-6.316	
9.600	1.443	
9.700	-5.861	
9.800	3.141	
9.900	5.972	
10.000	-9.964	
10.100	-4.511	
10.200	1.119	
10.300	21.347	
10.400	14.500	
10.500	17.854	
10.600	-16.247	
10.700	-20.000	
10.800	12.008	
10.900	-15.888	
11.000	-5.586	
11.100	-4.830	
11.200	-5.226	
11.300	-8.412	
11.400	-0.533	
11.500	1.688	
11.600	10.895	
11.700	-8.720	
11.800	-7.879	
11.900	-14.817	
12.000	15.609	
12.100	-10.075	
12.200	9.442	
12.300	-1.084	
12.400	-5.795	
12.500	4.779	
12.600	-3.369	
12.700	3.562	
12.800	10.908	
12.900	-11.226	
13.000	-9.161	
13.100	-3.435	
13.200	-2.118	
13.300	24.037	
13.400	10.848	
13.500	-6.222	
13.600	-5.170	
13.700	-8.816	
13.800	10.835	
13.900	-8.505	
14.000	18.129	
14.100	-12.898	
14.200	-3.665	
14.300	1.205	
14.400	2.725	
14.500	6.150	
14.600	0.116	
14.700	-2.975	
14.800	4.204	
14.900	19.005	
15.000	8.495	
15.100	-10.371	
15.200	3.145	
15.300	0.585	
15.400	-0.696	
15.500	-4.422	
15.600	21.658	
15.700	-24.828	
15.800	10.377	
15.900	7.474	
16.000	-0.362	
16.100	3.764	
16.200	-13.112	
16.300	0.100	
16.400	-9.374	
16.500	0.349	
16.600	5.273	
16.700	-0.895	
16.800	-7.275	
16.900	4.588	
17.000	19.139	
17.100	-6.777	
17.200	-3.475	
17.300	10.535	
17.400	-2.498	
17.500	2.948	
17.600	-14.887	
17.700	-2.625	
17.800	4.780	
17.900	8.998	
18.000	14.078	
18.100	5.166	
18.200	-1.914	
18.300	5.940	
18.400	-0.988	
18.500	11.088	
18.600	26.183	
18.700	-4.522	
18.800	-18.860	
18.900	-5.412	
19.000	-2.285	
19.100	17.988	
19.200	9.146	
19.300	-7.467	
19.400	-5.645	
19.500	3.845	
19.600	3.244	
19.700	12.209	
19.800	-9.152	
19.900	-15.043	
20.000	-12.201	
20.100	-19.082	
20.200	12.622	
20.300	13.926	
20.400	-3.453	
20.500	-1.219	
20.600	-0.110	
20.700	-17.318	
20.800	18.686	
20.900	9.587	
21.000	-4.408	
21.100	-18.498	
21.200	11.223	
21.300	10.131	
21.400	10.272	
21.500	26.213	
21.600	-12.823	
21.700	-22.082	
21.800	4.172	
21.900	7.426	
22.000	1.267	
22.100	-7.261	
22.200	-6.943	
22.300	2.676	
22.400	-9.028	
22.500	-1.346	
22.600	-0.670	
22.700	17.230	
22.800	2.502	
22.900	-0.628	
23.000	0.206	
23.100	1.132	
23.200	1.633	
23.300	3.650	
23.400	9.852	
23.500	-8.496	
23.600	-0.136	
23.700	15.924	
23.800	12.941	
23.900	-8.926	
24.000	-6.214	
24.100	-14.532	
24.200	-3.574	
24.300	0.427	
24.400	-2.055	
24.500	-4.501	
24.600	-14.558	
24.700	-8.674	
24.800	2.289	
24.900	24.851	
25.000	12.154	
25.100	6.077	
25.200	-7.956	
25.300	-13.392	
25.400	4.956	
25.500	4.477	
25.600	19.897	
25.700	-0.264	
25.800	20.892	
25.900	-26.257	
26.000	30.509	
26.100	0.612	
26.200	7.794	
26.300	-1.525	
26.400	15.090	
26.500	-5.634	
26.600	-7.633	
26.700	-2.568	
26.800	-8.048	
26.900	11.013	
27.000	3.401	
27.100	1.903	
27.200	18.467	
27.300	21.685	
27.400	-13.642	
27.500	-9.856	
27.600	-5.255	
27.700	18.767	
27.800	19.423	
27.900	-16.549	
28.000	-8.999	
28.100	4.810	
28.200	-7.221	
28.300	-5.497	
28.400	3.562	
28.500	23.595	
28.600	24.897	
28.700	-0.820	
28.800	-10.201	
28.900	3.905	
29.000	6.439	
29.100	2.321	
29.200	17.611	
29.300	1.490	
29.400	-0.651	
29.500	-13.920	
29.600	-3.755	
29.700	0.478	
29.800	5.920	
29.900	11.955	
30.000	-14.731	
30.100	-4.059	
30.200	12.022	
30.300	-3.433	
30.400	-2.505	
30.500	-7.675	
30.600	-2.935	
30.700	10.886	
30.800	15.515	
30.900	-12.350	
31.000	-10.898	
31.100	-4.659	
31.200	22.548	
31.300	17.334	
31.400	14.763	
31.500	1.451	
31.600	-1.832	
31.700	7.201	
31.800	10.130	
31.900	28.990	
32.000	25.852	
32.100	13.131	
32.200	9.726	
32.300	4.799	
32.400	9.701	
32.500	21.298	
32.600	8.030	
32.700	1.369	
32.800	-3.685	
32.900	7.243	
33.000	16.463	
33.100	12.913	
33.200	17.967	
33.300	18.265	
33.400	15.489	
33.500	19.604	
33.600	17.224	
33.700	31.424	
33.800	6.312	
33.900	22.821	
34.000	8.162	
34.100	6.539	
34.200	28.998	
34.300	-5.470	
34.400	12.738	
34.500	30.680	
34.600	10.314	
34.700	17.162	
34.800	2.219	
34.900	20.251	
35.000	8.321	
35.100	24.454	
35.200	-5.663	
35.300	21.531	
35.400	23.160	
35.500	1.265	
35.600	21.227	
35.700	18.505	
35.800	10.870	
35.900	22.483	
36.000	20.187	
36.100	32.337	
36.200	33.093	
36.300	14.737	
36.400	9.877	
36.500	16.863	
36.600	27.396	
36.700	17.673	
36.800	28.585	
36.900	8.803	
37.000	21.272	
37.100	11.247	
37.200	10.869	
37.300	49.903	
37.400	28.687	
37.500	10.094	
37.600	19.136	
37.700	15.810	
37.800	26.367	
37.900	13.001	
38.000	21.374	
38.100	27.981	
38.200	30.779	
38.300	33.013	
38.400	26.199	
38.500	4.246	
38.600	9.282	
38.700	15.681	
38.800	36.827	
38.900	27.451	
39.000	32.417	
39.100	36.544	
39.200	22.092	
39.300	18.882	
39.400	25.080	
39.500	39.015	
39.600	26.844	
39.700	18.817	
39.800	26.332	
39.900	7.289	
40.000	22.909	
40.100	38.484	
40.200	36.799	
40.300	25.091	
40.400	14.756	
40.500	17.023	
40.600	23.379	
40.700	24.885	
40.800	41.206	
40.900	29.088	
41.000	22.454	
41.100	26.097	
41.200	13.427	
41.300	26.082	
41.400	31.562	
41.500	15.482	
41.600	18.085	
41.700	27.193	
41.800	44.499	
41.900	33.583	
42.000	14.221	
42.100	26.191	
42.200	16.302	
42.300	19.786	
42.400	38.947	
42.500	44.918	
42.600	39.122	
42.700	39.403	
42.800	19.568	
42.900	26.232	
43.000	43.675	
43.100	29.120	
43.200	22.797	
43.300	12.845	
43.400	34.847	
43.500	27.629	
43.600	48.996	
43.700	32.385	
43.800	17.284	
43.900	29.992	
44.000	20.035	
44.100	6.924	
44.200	36.602	
44.300	38.889	
44.400	33.140	
44.500	31.879	
44.600	14.369	
44.700	27.528	
44.800	60.279	
44.900	28.866	
45.000	25.579	
45.100	13.720	
45.200	34.573	
45.300	42.092	
45.400	25.347	
45.500	21.574	
45.600	44.179	
45.700	35.246	
45.800	38.658	
45.900	24.807	
46.000	29.711	
46.100	29.744	
46.200	34.772	
46.300	15.882	
46.400	24.049	
46.500	36.393	
46.600	41.054	
46.700	27.243	
46.800	29.840	
46.900	22.622	
47.000	17.089	
47.100	24.193	
47.200	51.087	
47.300	32.960	
47.400	25.428	
47.500	16.067	
47.600	31.768	
47.700	46.945	
47.800	26.497	
47.900	38.319	
48.000	18.266	
48.100	41.728	
48.200	29.783	
48.300	34.917	
48.400	38.960	
48.500	22.453	
48.600	0.975	
48.700	35.990	
48.800	39.553	
48.900	43.344	
49.000	20.914	
49.100	27.962	
49.200	23.186	
49.300	22.648	
49.400	34.560	
49.500	33.225	
49.600	44.921	
49.700	20.215	
49.800	40.281	
49.900	18.466	
50.000	21.289	
50.100	40.010	
50.200	36.731	
50.300	26.157	
50.400	23.842	
50.500	26.984	
50.600	29.981	
50.700	48.814	
50.800	39.351	
50.900	19.789	
51.000	33.608	
51.100	20.716	
51.200	31.515	
51.300	41.006	
51.400	31.622	
51.500	16.325	
51.600	23.071	
51.700	49.771	
51.800	45.865	
51.900	23.213	
52.000	31.969	
52.100	38.809	
52.200	36.375	
52.300	36.642	
52.400	46.643	
52.500	22.469	
52.600	18.833	
52.700	26.494	
52.800	39.018	
52.900	8.185	
53.000	74.470	
53.100	37.914	
53.200	22.232	
53.300	34.603	
53.400	45.776	
53.500	33.691	
53.600	28.510	
53.700	37.622	
53.800	16.417	
53.900	7.313	
54.000	31.130	
54.100	59.784	
54.200	33.350	
54.300	25.024	
54.400	38.202	
54.500	13.930	
54.600	42.963	
54.700	28.401	
54.800	62.632	
54.900	40.074	
55.000	28.355	
55.100	25.125	
55.200	25.050	
55.300	22.951	
55.400	30.686	
55.500	32.457	
55.600	46.540	
55.700	33.965	
55.800	33.111	
55.900	36.268	
56.000	40.107	
56.100	20.153	
56.200	29.410	
56.300	24.321	
56.400	33.283	
56.500	38.535	
56.600	38.543	
56.700	21.975	
56.800	27.542	
56.900	35.343	
57.000	47.954	
57.100	45.078	
57.200	15.985	
57.300	44.916	
57.400	40.427	
57.500	39.506	
57.600	29.483	
57.700	42.471	
57.800	17.556	
57.900	28.466	
58.000	56.098	
58.100	16.891	
58.200	50.002	
58.300	52.684	
58.400	23.447	
58.500	29.354	
58.600	16.977	
58.700	59.627	
58.800	46.916	
58.900	51.622	
59.000	42.599	
59.100	28.513	
59.200	32.992	
59.300	7.245	
59.400	51.808	
59.500	33.155	
59.600	24.948	
59.700	41.948	
59.800	36.847	
59.900	43.629	
60.000	41.726	
60.100	29.323	
60.200	30.945	
60.300	33.896	
60.400	37.725	
60.500	38.769	
60.600	40.318	
60.700	37.035	
60.800	27.374	
60.900	25.009	
61.000	41.652	
61.100	46.610	
61.200	25.340	
61.300	33.655	
61.400	46.091	
61.500	23.080	
61.600	37.441	
61.700	46.484	
61.800	44.899	
61.900	36.311	
62.000	36.405	
62.100	49.118	
62.200	32.139	
62.300	31.318	
62.400	44.172	
62.500	37.647	
62.600	41.634	
62.700	31.296	
62.800	48.825	
62.900	34.423	
63.000	55.351	
63.100	29.478	
63.200	21.406	
63.300	36.244	
63.400	58.470	
63.500	43.811	
63.600	37.147	
63.700	27.710	
63.800	38.759	
63.900	34.426	
64.000	48.477	
64.100	33.713	
64.200	54.809	
64.300	39.040	
64.400	26.149	
64.500	31.651	
64.600	41.213	
64.700	50.596	
64.800	53.802	
64.900	38.307	
65.000	36.936	
65.100	36.663	
65.200	45.988	
65.300	46.175	
65.400	38.981	
65.500	37.508	
65.600	34.047	
65.700	32.322	
65.800	32.058	
65.900	25.259	
66.000	51.016	
66.100	45.660	
66.200	33.816	
66.300	45.503	
66.400	60.773	
66.500	37.686	
66.600	35.406	
66.700	42.684	
66.800	41.107	
66.900	34.478	
67.000	53.032	
67.100	40.102	
67.200	51.496	
67.300	20.084	
67.400	30.398	
67.500	42.358	
67.600	39.558	
67.700	63.898	
67.800	17.797	
67.900	23.099	
68.000	47.528	
68.100	67.947	
68.200	34.804	
68.300	54.108	
68.400	43.033	
68.500	37.338	
68.600	45.650	
68.700	42.599	
68.800	43.936	
68.900	40.182	
69.000	40.928	
69.100	12.420	
69.200	28.512	
69.300	47.549	
69.400	20.015	
69.500	55.425	
69.600	26.767	
69.700	47.413	
69.800	40.469	
69.900	37.491	
70.000	26.886	
70.100	43.596	
70.200	24.812	
70.300	37.219	
70.400	24.621	
70.500	50.674	
70.600	52.511	
70.700	38.132	
70.800	30.334	
70.900	27.096	
71.000	39.286	
71.100	33.847	
71.200	43.644	
71.300	35.563	
71.400	24.537	
71.500	48.571	
71.600	38.237	
71.700	40.427	
71.800	48.169	
71.900	37.924	
72.000	29.972	
72.100	25.808	
72.200	52.815	
72.300	43.478	
72.400	37.394	
72.500	43.979	
72.600	35.446	
72.700	48.550	
72.800	41.460	
72.900	35.091	
73.000	29.760	
73.100	11.875	
73.200	33.145	
73.300	54.423	
73.400	52.148	
73.500	40.846	
73.600	34.995	
73.700	35.881	
73.800	18.855	
73.900	36.744	
74.000	48.412	
74.100	43.900	
74.200	52.792	
74.300	30.145	
74.400	33.884	
74.500	29.976	
74.600	50.793	
74.700	30.429	
74.800	37.332	
74.900	44.549	
75.000	32.024	
75.100	40.396	
75.200	38.994	
75.300	29.913	
75.400	40.939	
75.500	43.645	
75.600	27.604	
75.700	31.389	
75.800	50.981	
75.900	17.809	
76.000	46.025	
76.100	29.026	
76.200	44.107	
76.300	45.343	
76.400	25.137	
76.500	34.718	
76.600	20.963	
76.700	27.129	
76.800	45.670	
76.900	32.266	
77.000	39.781	
77.100	28.061	
77.200	33.522	
77.300	41.563	
77.400	26.579	
77.500	29.672	
77.600	73.474	
77.700	42.209	
77.800	9.321	
77.900	26.708	
78.000	57.320	
78.100	40.470	
78.200	43.780	
78.300	52.665	
78.400	41.907	
78.500	29.859	
78.600	50.829	
78.700	51.076	
78.800	45.125	
78.900	30.984	
79.000	41.797	
79.100	34.919	
79.200	37.150	
79.300	59.959	
79.400	46.431	
79.500	35.817	
79.600	42.293	
79.700	56.315	
79.800	33.964	
79.900	53.540	
80.000	38.441	
80.100	21.201	
80.200	39.690	
80.300	50.818	
80.400	50.275	
80.500	46.870	
80.600	32.408	
80.700	35.809	
80.800	4.366	
80.900	32.264	
81.000	35.952	
81.100	46.734	
81.200	37.827	
81.300	37.384	
81.400	40.767	
81.500	37.810	
81.600	59.301	
81.700	41.119	
81.800	35.205	
81.900	40.240	
82.000	35.621	
82.100	34.826	
82.200	48.453	
82.300	39.748	
82.400	39.015	
82.500	27.348	
82.600	56.908	
82.700	29.277	
82.800	36.745	
82.900	44.931	
83.000	31.263	
83.100	34.388	
83.200	45.870	
83.300	22.943	
83.400	63.104	
83.500	34.816	
83.600	41.473	
83.700	37.292	
83.800	54.619	
83.900	57.316	
84.000	31.158	
84.100	45.963	
84.200	40.031	
84.300	34.569	
84.400	37.908	
84.500	56.817	
84.600	39.029	
84.700	39.500	
84.800	30.305	
84.900	34.579	
85.000	64.367	
85.100	35.198	
85.200	44.417	
85.300	44.317	
85.400	33.939	
85.500	20.268	
85.600	45.570	
85.700	39.560	
85.800	49.109	
85.900	27.082	
86.000	44.748	
86.100	50.899	
86.200	60.729	
86.300	40.274	
86.400	36.337	
86.500	41.515	
86.600	45.472	
86.700	40.482	
86.800	40.180	
86.900	38.677	
87.000	44.280	
87.100	30.535	
87.200	26.974	
87.300	30.110	
87.400	39.602	
87.500	51.797	
87.600	56.590	
87.700	31.504	
87.800	32.405	
87.900	36.882	
88.000	53.506	
88.100	45.999	
88.200	48.191	
88.300	37.775	
88.400	25.489	
88.500	23.740	
88.600	64.400	
88.700	43.067	
88.800	43.836	
88.900	31.235	
89.000	33.977	
89.100	41.911	
89.200	49.968	
89.300	52.614	
89.400	53.029	
89.500	34.963	
89.600	33.225	
89.700	34.356	
89.800	46.064	
89.900	55.867	
90.000	28.533	
90.100	21.882	
90.200	38.298	
90.300	39.715	
90.400	36.289	
90.500	32.348	
90.600	32.776	
90.700	44.146	
90.800	40.085	
90.900	50.242	
91.000	19.983	
91.100	36.703	
91.200	24.980	
91.300	25.384	
91.400	35.614	
91.500	30.005	
91.600	43.101	
91.700	30.734	
91.800	5.192	
91.900	35.250	
92.000	27.416	
92.100	31.358	
92.200	25.534	
92.300	17.493	
92.400	16.286	
92.500	-1.437	
92.600	23.287	
92.700	25.285	
92.800	41.396	
92.900	23.557	
93.000	14.376	
93.100	13.070	
93.200	14.630	
93.300	32.945	
93.400	12.396	
93.500	16.850	
93.600	24.358	
93.700	23.277	
93.800	34.692	
93.900	18.511	
94.000	16.523	
94.100	23.030	
94.200	29.964	
94.300	26.830	
94.400	9.086	
94.500	19.483	
94.600	3.678	
94.700	27.701	
94.800	33.537	
94.900	-3.357	
95.000	21.093	
95.100	18.219	
95.200	4.055	
95.300	-5.092	
95.400	30.903	
95.500	16.547	
95.600	23.087	
95.700	40.436	
95.800	14.931	
95.900	4.032	
96.000	0.170	
96.100	17.126	
96.200	5.324	
96.300	20.315	
96.400	22.958	
96.500	31.749	
96.600	-10.003	
96.700	6.239	
96.800	47.067	
96.900	18.287	
97.000	17.921	
97.100	20.543	
97.200	6.014	
97.300	-4.142	
97.400	12.217	
97.500	12.765	
97.600	-1.704	
97.700	23.935	
97.800	29.306	
97.900	8.013	
98.000	12.788	
98.100	26.499	
98.200	14.966	
98.300	12.245	
98.400	15.201	
98.500	14.527	
98.600	5.878	
98.700	18.066	
98.800	11.874	
98.900	10.004	
99.000	8.481	
99.100	16.375	
99.200	22.749	
99.300	-11.404	
99.400	-11.945	
99.500	15.694	
99.600	21.504	
99.700	14.044	
99.800	6.297	
99.900	-14.607	
100.000	6.847	
100.100	7.751	
100.200	23.552	
100.300	2.529	
100.400	14.327	
100.500	-19.829	
100.600	23.571	
100.700	-3.745	
100.800	-5.535	
100.900	32.276	
101.000	12.713	
101.100	1.443	
101.200	8.698	
101.300	-3.290	
101.400	-6.608	
101.500	19.942	
101.600	-6.052	
101.700	5.083	
101.800	2.914	
101.900	3.938	
102.000	8.576	
102.100	11.173	
102.200	9.004	
102.300	-12.333	
102.400	-13.596	
102.500	19.395	
102.600	3.385	
102.700	14.220	
102.800	3.880	
102.900	-7.481	
103.000	8.774	
103.100	7.348	
103.200	7.780	
103.300	3.984	
103.400	-7.089	
103.500	-7.878	
103.600	-12.398	
103.700	10.738	
103.800	1.609	
103.900	-0.214	
104.000	1.858	
104.100	-20.145	
104.200	22.775	
104.300	2.950	
104.400	7.529	
104.500	-9.849	
104.600	-4.049	
104.700	0.122	
104.800	9.605	
104.900	-7.775	
105.000	8.399	
105.100	-11.967	
105.200	0.338	
105.300	18.167	
105.400	13.536	
105.500	5.949	
105.600	3.960	
105.700	-11.065	
105.800	-11.783	
105.900	15.978	
106.000	-9.478	
106.100	18.611	
106.200	2.084	
106.300	-2.495	
106.400	-19.651	
106.500	-8.105	
106.600	11.403	
106.700	7.826	
106.800	3.497	
106.900	-0.768	
107.000	-28.116	
107.100	-11.102	
107.200	-4.211	
107.300	-17.712	
107.400	-5.298	
107.500	-3.705	
107.600	13.159	
107.700	0.726	
107.800	-2.761	
107.900	-2.079	
108.000	-19.532	
108.100	4.837	
108.200	6.468	
108.300	5.083	
108.400	-7.138	
108.500	11.373	
108.600	-3.099	
108.700	13.138	
108.800	-13.197	
108.900	-8.406	
109.000	7.106	
109.100	-0.539	
109.200	-11.283	
109.300	-5.739	
109.400	-15.715	
109.500	-11.095	
109.600	7.152	
109.700	-3.869	
109.800	-19.579	
109.900	-14.185	
110.000	0.673	
110.100	-4.101	
110.200	8.349	
110.300	-9.361	
110.400	-25.549	
110.500	-13.930	
110.600	-17.192	
110.700	-12.549	
110.800	12.401	
110.900	-3.627	
111.000	6.697	
111.100	-8.828	
111.200	-30.181	
111.300	4.954	
111.400	-7.665	
111.500	0.071	
111.600	-29.704	
111.700	-26.096	
111.800	16.378	
111.900	0.610	
112.000	-4.109	
112.100	-4.447	
112.200	-14.213	
112.300	-18.341	
112.400	-3.218	
112.500	15.459	
112.600	-5.001	
112.700	-19.459	
112.800	-8.191	
112.900	-18.714	
113.000	-7.142	
113.100	-10.526	
113.200	8.573	
113.300	-22.888	
113.400	-12.434	
113.500	10.032	
113.600	-9.761	
113.700	13.546	
113.800	-3.498	
113.900	-16.203	
114.000	-9.124	
114.100	-17.272	
114.200	-5.104	
114.300	-1.049	
114.400	-10.228	
114.500	-11.082	
114.600	-12.651	
114.700	-13.018	
114.800	-0.104	
114.900	-3.625	
115.000	2.822	
115.100	-5.928	
115.200	-5.935	
115.300	-5.468	
115.400	-8.337	
115.500	-13.442	
115.600	-0.769	
115.700	-8.864	
115.800	-4.682	
115.900	-27.483	
116.000	-4.149	
116.100	2.710	
116.200	-23.937	
116.300	-5.525	
116.400	-20.396	
116.500	1.913	
116.600	0.737	
116.700	-7.092	
116.800	6.225	
116.900	-7.490	
117.000	-29.349	
117.100	-12.394	
117.200	-10.518	
117.300	-1.935	
117.400	-16.515	
117.500	-4.846	
117.600	-13.127	
117.700	-23.647	
117.800	10.276	
117.900	15.414	
118.000	-9.547	
118.100	-11.504	
118.200	-30.088	
118.300	-11.126	
118.400	-11.575	
118.500	3.982	
118.600	-15.927	
118.700	-18.012	
118.800	-16.050	
118.900	-23.946	
119.000	0.719	
119.100	2.388	
119.200	-5.763	
119.300	-23.721	
119.400	-8.683	
119.500	-6.847	
119.600	6.798	
119.700	-15.423	
119.800	-9.799	
119.900	-19.663	
120.000	-1.463	
120.100	-0.702	
120.200	-4.953	
120.300	-1.333	
120.400	-7.470	
120.500	-42.520	
120.600	10.756	
120.700	-8.009	
120.800	-3.843	
120.900	-18.730	
121.000	-27.671	
121.100	-8.627	
121.200	5.752	
121.300	-13.780	
121.400	-14.993	
121.500	-22.741	
121.600	-14.190	
121.700	-18.002	
121.800	-8.155	
121.900	16.675	
122.000	-3.255	
122.100	-23.180	
122.200	-12.497	
122.300	-8.823	
122.400	3.822	
122.500	2.363	
122.600	-14.325	
122.700	-34.311	
122.800	0.350	
122.900	-13.283	
123.000	0.354	
123.100	-1.176	
123.200	-0.693	
123.300	-14.753	
123.400	-20.638	
123.500	-28.985	
123.600	-16.829	
123.700	-7.949	
123.800	-15.336	
123.900	-10.633	
124.000	-12.809	
124.100	-2.258	
124.200	-12.046	
124.300	4.824	
124.400	-19.998	
124.500	-31.801	
124.600	-16.259	
124.700	-11.280	
124.800	-6.584	
124.900	-3.827	
125.000	-17.916	
125.100	-33.140	
125.200	-2.861	
125.300	-7.699	
125.400	6.163	
125.500	-0.313	
125.600	-27.584	
125.700	5.673	
125.800	-18.262	
125.900	-10.006	
126.000	3.279	
126.100	-24.370	
126.200	-21.898	
126.300	-12.287	
126.400	-1.617	
126.500	-17.107	
126.600	-27.753	
126.700	-0.616	
126.800	-30.967	
126.900	-3.201	
127.000	-3.231	
127.100	-6.722	
127.200	-4.304	
127.300	-9.455	
127.400	-9.733	
127.500	-9.848	
127.600	-15.661	
127.700	0.790	
127.800	-6.619	
127.900	-14.510	
128.000	-23.244	
128.100	-29.129	
128.200	-6.480	
128.300	-1.724	
128.400	-17.091	
128.500	-10.575	
128.600	-24.266	
128.700	-3.584	
128.800	-12.832	
128.900	-5.562	
129.000	15.270	
129.100	-1.305	
129.200	-29.817	
129.300	-25.756	
129.400	-6.802	
129.500	-11.662	
129.600	-17.114	
129.700	-7.753	
129.800	-5.995	
129.900	-8.009	
130.000	-9.629	
130.100	-15.192	
130.200	-2.730	
130.300	-11.495	
130.400	-18.815	
130.500	-4.583	
130.600	-15.729	
130.700	-13.535	
130.800	-5.335	
130.900	-13.686	
131.000	-8.297	
131.100	-2.460	
131.200	1.660	
131.300	-9.751	
131.400	-25.300	
131.500	-9.905	
131.600	1.235	
131.700	-22.185	
131.800	-15.584	
131.900	4.549	
132.000	-2.251	
132.100	-6.033	
132.200	-18.969	
132.300	-10.059	
132.400	0.038	
132.500	-10.294	
132.600	-15.818	
132.700	-8.403	
132.800	-22.708	
132.900	-14.994	
133.000	10.981	
133.100	-13.338	
133.200	3.933	
133.300	-6.934	
133.400	-22.391	
133.500	-6.312	
133.600	-5.859	
133.700	-31.979	
133.800	-20.081	
133.900	-12.535	
134.000	-10.217	
134.100	1.309	
134.200	-13.201	
134.300	3.531	
134.400	-9.049	
134.500	-10.143	
134.600	-7.190	
134.700	-10.562	
134.800	-17.916	
134.900	-9.342	
135.000	-12.136	
135.100	-8.308	
135.200	-1.589	
135.300	-2.625	
135.400	6.703	
135.500	-14.118	
135.600	-21.661	
135.700	1.355	
135.800	-2.210	
135.900	-3.031	
136.000	4.932	
136.100	-14.936	
136.200	-15.006	
136.300	-6.530	
136.400	-31.301	
136.500	-1.392	
136.600	-2.033	
136.700	-28.266	
136.800	-28.099	
136.900	-8.765	
137.000	-3.577	
137.100	-12.300	
137.200	-6.527	
137.300	-11.611	
137.400	-15.320	
137.500	-16.748	
137.600	-15.331	
137.700	3.590	
137.800	-19.692	
137.900	-14.871	
138.000	4.232	
138.100	-21.710	
138.200	-11.816	
138.300	1.127	
138.400	-15.991	
138.500	-6.511	
138.600	-17.395	
138.700	-9.290	
138.800	-23.012	
138.900	18.040	
139.000	-14.120	
139.100	-14.157	
139.200	-24.843	
139.300	1.634	
139.400	-7.608	
139.500	0.253	
139.600	-13.623	
139.700	-30.884	
139.800	-15.649	
139.900	-8.214	
140.000	-0.741	
140.100	-3.866	
140.200	-23.297	
140.300	-19.009	
140.400	-14.919	
140.500	-18.913	
140.600	-8.652	
140.700	-12.094	
140.800	-17.055	
140.900	-12.642	
141.000	-17.703	
141.100	-4.916	
141.200	19.413	
141.300	-12.854	
141.400	-17.410	
141.500	-18.984	
141.600	-21.250	
141.700	-0.506	
141.800	4.519	
141.900	-30.918	
142.000	-13.950	
142.100	-21.175	
142.200	-28.386	
142.300	8.132	
142.400	3.011	
142.500	-16.546	
142.600	-17.129	
142.700	-2.749	
142.800	-14.803	
142.900	-14.481	
143.000	-9.922	
143.100	5.165	
143.200	-22.390	
143.300	-19.554	
143.400	0.672	
143.500	-20.549	
143.600	4.332	
143.700	-24.301	
143.800	-26.006	
143.900	-29.033	
144.000	0.191	
144.100	-8.984	
144.200	-5.130	
144.300	-11.017	
144.400	-11.980	
144.500	-2.675	
144.600	-16.312	
144.700	-0.199	
144.800	-0.001	
144.900	-32.502	
145.000	-5.197	
145.100	-14.875	
145.200	-3.173	
145.300	-9.352	
145.400	-13.813	
145.500	1.205	
145.600	-14.536	
145.700	-13.301	
145.800	-19.303	
145.900	-4.445	
146.000	-7.430	
146.100	6.517	
146.200	-21.684	
146.300	-2.386	
146.400	-0.697	
146.500	6.171	
146.600	-13.648	
146.700	-21.995	
146.800	-24.078	
146.900	-0.362	
147.000	-6.962	
147.100	7.710	
147.200	-4.603	
147.300	-40.819	
147.400	-10.844	
147.500	-7.150	
147.600	-4.330	
147.700	-23.637	
147.800	-8.496	
147.900	-19.406	
148.000	-20.546	
148.100	8.383	
148.200	3.796	
148.300	-15.754	
148.400	-7.036	
148.500	-40.993	
148.600	-8.049	
148.700	-0.005	
148.800	3.303	
148.900	-18.791	
149.000	-7.724	
149.100	-9.629	
149.200	0.044	
149.300	-23.848	
149.400	-1.765	
149.500	-18.220	
149.600	-17.271	
149.700	-0.340	
149.800	0.273	
149.900	-4.537	
150.000	-16.956	
150.100	-5.052	
150.200	-16.517	
150.300	-27.134	
150.400	-12.332	
150.500	5.197	
150.600	13.462	
150.700	-31.565	
150.800	-10.545	
150.900	-6.356	
151.000	8.681	
151.100	-9.043	
151.200	8.442	
151.300	-13.405	
151.400	-5.830	
151.500	-27.196	
151.600	-7.163	
151.700	2.885	
151.800	-1.272	
151.900	-24.692	
152.000	-13.991	
152.100	-25.153	
152.200	-13.540	
152.300	15.504	
152.400	-11.437	
152.500	-27.413	
152.600	-24.470	
152.700	-0.963	
152.800	4.602	
152.900	-19.122	
153.000	-5.825	
153.100	-17.045	
153.200	-10.473	
153.300	-12.438	
153.400	-9.706	
153.500	-1.857	
153.600	-10.630	
153.700	-9.774	
153.800	-18.382	
153.900	-3.430	
154.000	-4.113	
154.100	-9.439	
154.200	-22.607	
154.300	-27.798	
154.400	-10.031	
154.500	-3.299	
154.600	-5.020	
154.700	-6.078	
154.800	-4.642	
154.900	-8.699	
155.000	-11.752	
155.100	-7.991	
155.200	-25.132	
155.300	-8.558	
155.400	-17.969	
155.500	-4.051	
155.600	-24.376	
155.700	-17.832	
155.800	7.938	
155.900	-23.444	
156.000	-14.535	
156.100	-31.247	
156.200	-5.577	
156.300	3.753	
156.400	2.431	
156.500	-14.178	
156.600	-22.126	
156.700	-20.713	
156.800	4.990	
156.900	-17.085	
157.000	3.304	
157.100	-12.754	
157.200	-21.012	
157.300	-13.720	
157.400	0.241	
157.500	-1.018	
157.600	-5.949	
157.700	-13.609	
157.800	-12.381	
157.900	-22.330	
158.000	6.475	
158.100	-4.371	
158.200	-20.771	
158.300	1.619	
158.400	-10.296	
158.500	-6.352	
158.600	-14.560	
158.700	-20.388	
158.800	-6.777	
158.900	-10.460	
159.000	-15.636	
159.100	0.217	
159.200	5.924	
159.300	-8.479	
159.400	-13.830	
159.500	-16.264	
159.600	-39.947	
159.700	8.321	
159.800	-2.231	
159.900	6.300	
160.000	-8.790	
160.100	-13.404	
160.200	-25.405	
160.300	-15.058	
160.400	-8.900	
160.500	-1.443	
160.600	-10.504	
160.700	-4.713	
160.800	-29.493	
160.900	-23.316	
161.000	0.031	
161.100	-9.530	
161.200	-12.918	
161.300	-29.364	
161.400	-10.897	
161.500	-6.373	
161.600	-2.194	
161.700	-17.408	
161.800	-5.077	
161.900	-20.478	
162.000	-17.480	
162.100	-4.071	
162.200	-2.735	
162.300	-12.257	
162.400	-4.195	
162.500	-19.738	
162.600	0.117	
162.700	2.474	
162.800	3.227	
162.900	-13.953	
163.000	-17.267	
163.100	-12.362	
163.200	-29.532	
163.300	-14.338	
163.400	-5.389	
163.500	-10.927	
163.600	-27.532	
163.700	-18.780	
163.800	-5.492	
163.900	-21.872	
164.000	0.841	
164.100	-17.663	
164.200	-4.927	
164.300	-22.733	
164.400	-2.704	
164.500	-19.234	
164.600	-29.370	
164.700	-19.081	
164.800	-14.461	
164.900	-10.476	
165.000	-14.380	
165.100	-5.194	
165.200	1.227	
165.300	-9.375	
165.400	-17.051	
165.500	0.552	
165.600	8.672	
165.700	-10.267	
165.800	-17.761	
165.900	-12.992	
166.000	-11.677	
166.100	-15.568	
166.200	-5.135	
166.300	-0.986	
166.400	-5.733	
166.500	-33.278	
166.600	-20.596	
166.700	-9.586	
166.800	-4.330	
166.900	-18.868	
167.000	-21.929	
167.100	-9.480	
167.200	-8.682	
167.300	-18.395	
167.400	8.887	
167.500	-4.931	
167.600	-16.517	
167.700	-6.315	
167.800	-18.416	
167.900	-31.318	
168.000	-16.909	
168.100	-7.063	
168.200	1.340	
168.300	-9.228	
168.400	-6.224	
168.500	2.104	
168.600	-2.578	
168.700	-5.953	
168.800	-15.891	
168.900	-26.175	
169.000	-4.704	
169.100	-12.632	
169.200	-7.083	
169.300	-7.073	
169.400	0.818	
169.500	-6.721	
169.600	-14.750	
169.700	-0.412	
169.800	-13.743	
169.900	-26.625	
170.000	-7.784	
170.100	-47.389	
170.200	14.290	
170.300	6.050	
170.400	-5.423	
170.500	4.361	
170.600	-32.127	
170.700	-10.558	
170.800	-23.850	
170.900	4.543	
171.000	-1.903	
171.100	-13.380	
171.200	-14.464	
171.300	-11.091	
171.400	-7.629	
171.500	-0.209	
171.600	-2.430	
171.700	-11.746	
171.800	-19.775	
171.900	-28.522	
172.000	-14.018	
172.100	3.849	
172.200	-2.187	
172.300	-30.011	
172.400	-14.497	
172.500	-3.382	
172.600	-17.758	
172.700	-5.247	
172.800	8.497	
172.900	-20.315	
173.000	-9.923	
173.100	-15.551	
173.200	-7.510	
173.300	-20.551	
173.400	-2.289	
173.500	-21.830	
173.600	-6.905	
173.700	-11.674	
173.800	2.572	
173.900	-13.618	
174.000	-1.844	
174.100	-25.642	
174.200	-12.869	
174.300	-24.220	
174.400	-2.467	
174.500	0.026	
174.600	-30.596	
174.700	-19.339	
174.800	-14.355	
174.900	-7.352	
175.000	-14.995	
175.100	2.946	
175.200	-7.043	
175.300	-21.078	
175.400	-22.307	
175.500	0.875	
175.600	-9.420	
175.700	-5.716	
175.800	-16.446	
175.900	-3.138	
176.000	-2.652	
176.100	-7.179	
176.200	-22.388	
176.300	-17.346	
176.400	-19.023	
176.500	-18.622	
176.600	0.839	
176.700	-7.599	
176.800	9.400	
176.900	-18.011	
177.000	-12.838	
177.100	-39.702	
177.200	-25.638	
177.300	-7.503	
177.400	-12.865	
177.500	-13.386	
177.600	-8.926	
177.700	-3.821	
177.800	-13.548	
177.900	-22.046	
178.000	-2.002	
178.100	-15.263	
178.200	-7.458	
178.300	-3.811	
178.400	0.073	
178.500	3.833	
178.600	-3.320	
178.700	-21.415	
178.800	-9.540	
178.900	-7.138	
179.000	-13.285	
179.100	-4.335	
179.200	-2.960	
179.300	-20.149	
179.400	-10.321	
179.500	-16.248	
179.600	-7.883	
179.700	-14.676	
179.800	-15.257	
179.900	-14.256	
180.000	-26.621	
180.100	-21.376	
180.200	-10.751	
180.300	-5.875	
180.400	0.898	
180.500	-1.111	
180.600	-35.545	
180.700	-6.912	
180.800	15.100	
180.900	19.074	
181.000	18.580	
181.100	-3.676	
181.200	-3.026	
181.300	-6.451	
181.400	22.014	
181.500	8.385	
181.600	-17.044	
181.700	-4.583	
181.800	15.215	
181.900	-6.928	
182.000	15.621	
182.100	34.186	
182.200	12.167	
182.300	-2.330	
182.400	18.353	
182.500	-5.458	
182.600	10.202	
182.700	4.557	
182.800	19.259	
182.900	23.112	
183.000	18.208	
183.100	0.731	
183.200	13.972	
183.300	14.223	
183.400	-1.442	
183.500	15.431	
183.600	18.795	
183.700	7.511	
183.800	14.207	
183.900	13.590	
184.000	7.223	
184.100	8.377	
184.200	18.849	
184.300	14.083	
184.400	31.082	
184.500	-14.318	
184.600	6.015	
184.700	10.936	
184.800	7.467	
184.900	7.318	
185.000	33.772	
185.100	15.636	
185.200	21.612	
185.300	12.960	
185.400	5.198	
185.500	11.736	
185.600	20.535	
185.700	18.020	
185.800	2.457	
185.900	10.156	
186.000	-3.623	
186.100	44.513	
186.200	8.293	
186.300	11.593	
186.400	-1.877	
186.500	26.165	
186.600	14.744	
186.700	13.107	
186.800	20.192	
186.900	8.357	
187.000	-1.660	
187.100	17.907	
187.200	6.723	
187.300	12.850	
187.400	22.400	
187.500	11.289	
187.600	21.854	
187.700	17.585	
187.800	20.776	
187.900	13.170	
188.000	31.907	
188.100	11.923	
188.200	18.531	
188.300	8.528	
188.400	19.692	
188.500	23.609	
188.600	17.044	
188.700	10.254	
188.800	19.014	
188.900	41.659	
189.000	26.524	
189.100	23.583	
189.200	26.372	
189.300	6.786	
189.400	15.895	
189.500	38.494	
189.600	31.038	
189.700	17.402	
189.800	17.468	
189.900	15.900	
190.000	10.926	
190.100	26.504	
190.200	24.451	
190.300	27.757	
190.400	19.112	
190.500	11.612	
190.600	32.667	
190.700	27.564	
190.800	27.724	
190.900	20.941	
191.000	44.526	
191.100	8.053	
191.200	21.295	
191.300	22.631	
191.400	34.393	
191.500	41.100	
191.600	23.521	
191.700	34.830	
191.800	-11.352	
191.900	23.267	
192.000	22.807	
192.100	46.328	
192.200	16.595	
192.300	24.662	
192.400	30.649	
192.500	30.502	
192.600	19.793	
192.700	21.213	
192.800	40.747	
192.900	26.802	
193.000	25.017	
193.100	43.064	
193.200	26.173	
193.300	28.569	
193.400	22.085	
193.500	33.566	
193.600	26.748	
193.700	18.101	
193.800	28.985	
193.900	17.309	
194.000	43.337	
194.100	27.092	
194.200	36.066	
194.300	34.380	
194.400	33.118	
194.500	28.341	
194.600	33.011	
194.700	31.770	
194.800	50.157	
194.900	24.055	
195.000	46.456	
195.100	11.440	
195.200	36.238	
195.300	56.271	
195.400	47.795	
195.500	41.639	
195.600	32.697	
195.700	17.677	
195.800	41.219	
195.900	29.705	
196.000	31.098	
196.100	43.044	
196.200	36.460	
196.300	28.868	
196.400	32.694	
196.500	23.073	
196.600	18.818	
196.700	33.929	
196.800	61.538	
196.900	22.531	
197.000	22.574	
197.100	14.911	
197.200	34.679	
197.300	52.614	
197.400	31.650	
197.500	25.666	
197.600	35.574	
197.700	14.961	
197.800	50.464	
197.900	42.866	
198.000	42.937	
198.100	32.421	
198.200	29.970	
198.300	30.195	
198.400	48.890	
198.500	40.359	
198.600	24.611	
198.700	36.693	
198.800	29.029	
198.900	32.213	
199.000	35.108	
199.100	49.651	
199.200	33.934	
199.300	36.109	
199.400	34.305	
199.500	43.020	
199.600	38.762	
199.700	47.437	
199.800	33.730	
199.900	26.036	
200.000	35.138	
200.100	35.916	
200.200	56.369	
200.300	35.961	
200.400	31.641	
200.500	29.827	
200.600	41.916	
200.700	40.818	
200.800	54.991	
200.900	42.462	
201.000	36.021	
201.100	42.837	
201.200	23.591	
201.300	44.045	
201.400	43.323	
201.500	21.756	
201.600	39.988	
201.700	54.934	
201.800	42.785	
201.900	57.582	
202.000	52.575	
202.100	24.988	
202.200	35.436	
202.300	15.894	
202.400	38.767	
202.500	49.366	
202.600	54.722	
202.700	45.797	
202.800	21.612	
202.900	49.471	
203.000	49.484	
203.100	40.502	
203.200	38.399	
203.300	30.307	
203.400	34.287	
203.500	15.256	
203.600	59.332	
203.700	42.944	
203.800	18.945	
203.900	41.707	
204.000	48.616	
204.100	46.438	
204.200	27.478	
204.300	52.720	
204.400	60.527	
204.500	42.401	
204.600	1.410	
204.700	42.109	
204.800	51.330	
204.900	21.481	
205.000	30.274	
205.100	45.122	
205.200	33.496	
205.300	38.053	
205.400	50.192	
205.500	40.697	
205.600	50.491	
205.700	44.003	
205.800	47.163	
205.900	23.233	
206.000	47.271	
206.100	38.591	
206.200	46.787	
206.300	49.506	
206.400	45.187	
206.500	52.137	
206.600	48.895	
206.700	33.590	
206.800	40.227	
206.900	37.435	
207.000	32.597	
207.100	41.742	
207.200	49.155	
207.300	40.900	
207.400	29.788	
207.500	36.411	
207.600	37.828	
207.700	44.880	
207.800	62.207	
207.900	28.583	
208.000	37.814	
208.100	36.060	
208.200	43.272	
208.300	51.797	
208.400	27.188	
208.500	43.374	
208.600	45.866	
208.700	46.372	
208.800	37.902	
208.900	65.230	
209.000	47.781	
209.100	25.350	
209.200	35.126	
209.300	48.113	
209.400	36.797	
209.500	42.628	
209.600	39.247	
209.700	38.749	
209.800	44.547	
209.900	20.196	
210.000	55.524	
210.100	56.543	
210.200	39.565	
210.300	29.819	
210.400	34.537	
210.500	37.873	
210.600	38.553	
210.700	43.413	
210.800	36.014	
210.900	39.298	
211.000	54.204	
211.100	28.080	
211.200	48.054	
211.300	47.620	
211.400	40.048	
211.500	34.316	
211.600	45.189	
211.700	45.395	
211.800	53.701	
211.900	47.515	
212.000	41.797	
212.100	20.823	
212.200	24.272	
212.300	41.486	
212.400	60.719	
212.500	45.262	
212.600	31.039	
212.700	49.233	
212.800	22.702	
212.900	36.115	
213.000	59.181	
213.100	39.343	
213.200	38.019	
213.300	27.512	
213.400	33.129	
213.500	15.208	
213.600	56.203	
213.700	51.127	
213.800	35.405	
213.900	42.369	
214.000	51.134	
214.100	29.664	
214.200	48.654	
214.300	38.096	
214.400	36.749	
214.500	35.221	
214.600	33.908	
214.700	57.576	
214.800	44.067	
214.900	45.644	
215.000	42.143	
215.100	24.822	
215.200	37.857	
215.300	42.507	
215.400	33.457	
215.500	35.539	
215.600	35.558	
215.700	58.265	
215.800	44.964	
215.900	47.169	
216.000	46.610	
216.100	34.242	
216.200	30.064	
216.300	32.435	
216.400	49.119	
216.500	53.988	
216.600	52.154	
216.700	39.319	
216.800	37.747	
216.900	47.026	
217.000	46.905	
217.100	42.801	
217.200	40.149	
217.300	36.630	
217.400	29.831	
217.500	44.850	
217.600	48.559	
217.700	49.212	
217.800	47.000	
217.900	38.682	
218.000	34.933	
218.100	43.522	
218.200	38.027	
218.300	59.866	
218.400	47.577	
218.500	33.071	
218.600	38.658	
218.700	48.369	
218.800	59.250	
218.900	57.424	
219.000	33.839	
219.100	29.957	
219.200	48.580	
219.300	33.716	
219.400	57.359	
219.500	52.931	
219.600	22.733	
219.700	38.296	
219.800	49.250	
219.900	45.721	
220.000	46.780	
220.100	50.903	
220.200	34.657	
220.300	26.447	
220.400	41.713	
220.500	30.406	
220.600	69.516	
220.700	46.419	
220.800	52.489	
220.900	41.613	
221.000	36.791	
221.100	31.941	
221.200	50.865	
221.300	38.896	
221.400	34.262	
221.500	34.943	
221.600	35.650	
221.700	41.180	
221.800	37.729	
221.900	30.358	
222.000	33.406	
222.100	42.655	
222.200	44.441	
222.300	30.273	
222.400	61.262	
222.500	51.796	
222.600	26.095	
222.700	30.195	
222.800	51.146	
222.900	45.338	
223.000	37.337	
223.100	39.180	
223.200	42.114	
223.300	27.066	
223.400	37.296	
223.500	60.568	
223.600	50.405	
223.700	33.323	
223.800	36.658	
223.900	39.480	
224.000	44.687	
224.100	39.127	
224.200	46.885	
224.300	42.793	
224.400	45.727	
224.500	52.103	
224.600	56.091	
224.700	32.394	
224.800	33.367	
224.900	25.072	
225.000	40.078	
225.100	42.758	
225.200	41.892	
225.300	47.150	
225.400	30.377	
225.500	39.162	
225.600	36.835	
225.700	32.061	
225.800	30.412	
225.900	42.132	
226.000	39.299	
226.100	45.608	
226.200	56.305	
226.300	51.978	
226.400	59.174	
226.500	56.465	
226.600	46.846	
226.700	39.953	
226.800	33.412	
226.900	42.267	
227.000	55.484	
227.100	46.305	
227.200	32.123	
227.300	4.738	
227.400	40.152	
227.500	38.743	
227.600	51.038	
227.700	36.543	
227.800	43.559	
227.900	37.964	
228.000	38.649	
228.100	41.734	
228.200	31.752	
228.300	29.236	
228.400	51.179	
228.500	43.498	
228.600	50.933	
228.700	47.658	
228.800	41.995	
228.900	47.578	
229.000	29.140	
229.100	7.823	
229.200	41.530	
229.300	41.505	
229.400	40.296	
229.500	33.672	
229.600	25.980	
229.700	31.445	
229.800	37.495	
229.900	40.264	
230.000	57.984	
230.100	46.533	
230.200	26.191	
230.300	49.162	
230.400	40.694	
230.500	32.728	
230.600	48.099	
230.700	50.912	
230.800	22.777	
230.900	20.834	
231.000	46.314	
231.100	47.934	
231.200	36.542	
231.300	30.073	
231.400	32.377	
231.500	34.243	
231.600	33.649	
231.700	39.702	
231.800	24.776	
231.900	39.577	
232.000	52.124	
232.100	44.722	
232.200	55.960	
232.300	61.431	
232.400	52.058	
232.500	33.713	
232.600	49.471	
232.700	36.285	
232.800	21.944	
232.900	49.407	
233.000	34.436	
233.100	40.692	
233.200	21.616	
233.300	40.252	
233.400	42.761	
233.500	35.898	
233.600	49.489	
233.700	31.327	
233.800	41.890	
233.900	44.166	
234.000	30.804	
234.100	46.296	
234.200	44.119	
234.300	53.164	
234.400	39.308	
234.500	39.769	
234.600	41.265	
234.700	45.990	
234.800	49.608	
234.900	26.844	
235.000	46.545	
235.100	42.395	
235.200	42.505	
235.300	41.683	
235.400	32.096	
235.500	11.019	
235.600	63.038	
235.700	35.247	
235.800	18.571	
235.900	56.677	
236.000	22.420	
236.100	50.650	
236.200	55.723	
236.300	44.390	
236.400	46.662	
236.500	26.570	
236.600	27.484	
236.700	49.125	
236.800	35.499	
236.900	63.197	
237.000	53.136	
237.100	28.038	
237.200	36.924	
237.300	36.821	
237.400	37.858	
237.500	47.613	
237.600	47.088	
237.700	44.782	
237.800	51.504	
237.900	46.992	
238.000	24.985	
238.100	45.626	
238.200	61.805	
238.300	35.253	
238.400	33.319	
238.500	35.549	
238.600	31.153	
238.700	25.054	
238.800	44.147	
238.900	46.807	
239.000	53.804	
239.100	34.927	
239.200	41.322	
239.300	44.764	
239.400	29.849	
239.500	45.097	
239.600	36.743	
239.700	46.999	
239.800	52.301	
239.900	36.347	
240.000	34.208	
240.100	33.055	
240.200	47.897	
240.300	29.038	
240.400	45.527	
240.500	14.453	
240.600	41.871	
240.700	27.501	
240.800	48.085	
240.900	38.625	
241.000	45.811	
241.100	16.657	
241.200	23.949	
241.300	30.857	
241.400	26.356	
241.500	33.982	
241.600	12.577	
241.700	28.039	
241.800	53.019	
241.900	23.675	
242.000	4.710	
242.100	32.227	
242.200	20.873	
242.300	21.622	
242.400	27.931	
242.500	24.570	
242.600	14.088	
242.700	-2.286	
242.800	33.939	
242.900	2.241	
243.000	18.448	
243.100	17.967	
243.200	13.576	
243.300	34.008	
243.400	33.344	
243.500	-8.391	
243.600	16.544	
243.700	9.635	
243.800	35.673	
243.900	10.096	
244.000	16.116	
244.100	6.824	
244.200	14.199	
244.300	16.960	
244.400	16.182	
244.500	6.405	
244.600	8.256	
244.700	23.828	
244.800	15.553	
244.900	-6.324	
245.000	-2.662	
245.100	35.238	
245.200	8.788	
245.300	-14.863	
245.400	19.884	
245.500	17.680	
245.600	16.892	
245.700	33.456	
245.800	0.789	
245.900	11.409	
246.000	-5.353	
246.100	8.673	
246.200	17.684	
246.300	23.907	
246.400	11.858	
246.500	25.312	
246.600	14.552	
246.700	0.164	
246.800	14.850	
246.900	5.489	
247.000	-10.532	
247.100	13.763	
247.200	12.438	
247.300	12.517	
247.400	6.604	
247.500	23.202	
247.600	2.519	
247.700	3.224	
247.800	5.019	
247.900	-12.249	
248.000	28.286	
248.100	10.791	
248.200	-16.360	
248.300	7.716	
248.400	6.773	
248.500	-0.843	
248.600	13.061	
248.700	-6.272	
248.800	12.146	
248.900	-16.137	
249.000	12.111	
249.100	20.137	
249.200	27.612	
249.300	9.506	
249.400	3.499	
249.500	-18.313	
249.600	-5.953	
249.700	6.859	
249.800	11.502	
249.900	-11.224	
250.000	3.664	
250.100	-1.424	
250.200	-4.430	
250.300	-12.475	
250.400	3.583	
250.500	17.181	
250.600	-21.349	
250.700	-2.513	
250.800	-11.004	
250.900	-6.790	
251.000	6.935	
251.100	3.734	
251.200	-3.756	
251.300	-15.001	
251.400	-4.450	
251.500	16.241	
251.600	13.625	
251.700	-8.279	
251.800	-8.480	
251.900	-2.042	
252.000	-4.559	
252.100	-9.785	
252.200	-5.822	
252.300	5.322	
252.400	-18.387	
252.500	-13.817	
252.600	8.824	
252.700	-7.296	
252.800	-24.431	
252.900	-2.669	
253.000	12.735	
253.100	-13.973	
253.200	1.892	
253.300	-2.308	
253.400	-0.303	
253.500	-15.997	
253.600	-11.462	
253.700	4.800	
253.800	2.928	
253.900	-6.469	
254.000	-14.527	
254.100	6.501	
254.200	-12.828	
254.300	12.154	
254.400	-5.332	
254.500	-16.653	
254.600	-11.437	
254.700	-35.075	
254.800	8.729	
254.900	-8.407	
255.000	12.015	
255.100	-26.401	
255.200	0.382	
255.300	-10.478	
255.400	-10.105	
255.500	-12.484	
255.600	-3.933	
255.700	2.441	
255.800	-10.557	
255.900	-17.272	
256.000	-33.450	
256.100	3.720	
256.200	1.864	
256.300	-3.854	
256.400	-6.841	
256.500	-13.398	
256.600	-11.680	
256.700	-0.948	
256.800	5.955	
256.900	-11.200	
257.000	-13.795	
257.100	-13.343	
257.200	-22.809	
257.300	-21.312	
257.400	-4.796	
257.500	16.139	
257.600	-24.302	
257.700	-44.781	
257.800	-19.207	
257.900	-5.942	
258.000	-13.709	
258.100	-6.258	
258.200	-12.576	
258.300	-21.711	
258.400	4.739	
258.500	-16.612	
258.600	-17.136	
258.700	-9.365	
258.800	-20.588	
258.900	-13.908	
259.000	0.371	
259.100	-13.458	
259.200	-15.220	
259.300	-18.585	
259.400	-14.127	
259.500	-26.327	
259.600	-23.675	
259.700	-19.910	
259.800	0.294	
259.900	-13.893	
260.000	-5.544	
260.100	-15.052	
260.200	-17.918	
260.300	-2.401	
260.400	-3.565	
260.500	-21.375	
260.600	-19.276	
260.700	-14.197	
260.800	-11.054	
260.900	-20.235	
261.000	1.739	
261.100	-14.827	
261.200	-23.233	
261.300	-12.645	
261.400	-5.744	
261.500	-2.794	
261.600	-12.448	
261.700	-20.705	
261.800	-38.364	
261.900	-15.200	
262.000	-7.406	
262.100	-26.287	
262.200	-27.451	
262.300	-20.412	
262.400	-30.125	
262.500	2.085	
262.600	-1.769	
262.700	0.229	
262.800	-10.301	
262.900	-26.672	
263.000	-2.965	
263.100	-11.036	
263.200	-4.616	
263.300	-16.475	
263.400	-19.896	
263.500	-16.525	
263.600	-5.417	
263.700	-12.418	
263.800	-28.644	
263.900	-7.158	
264.000	-22.389	
264.100	-23.967	
264.200	3.829	
264.300	-8.823	
264.400	-13.245	
264.500	-20.353	
264.600	-25.616	
264.700	-3.732	
264.800	-22.437	
264.900	-9.568	
265.000	-23.031	
265.100	-25.737	
265.200	-26.800	
265.300	5.652	
265.400	-6.244	
265.500	-6.766	
265.600	-29.447	
265.700	-9.143	
265.800	-24.973	
265.900	-14.118	
266.000	-6.976	
266.100	-9.200	
266.200	-15.003	
266.300	-24.460	
266.400	-17.247	
266.500	-18.039	
266.600	-0.244	
266.700	-9.831	
266.800	-11.359	
266.900	-24.975	
267.000	-9.800	
267.100	-24.516	
267.200	6.378	
267.300	-21.992	
267.400	-20.358	
267.500	-10.949	
267.600	-19.535	
267.700	-18.317	
267.800	-3.992	
267.900	-6.582	
268.000	-11.583	
268.100	-36.596	
268.200	-23.055	
268.300	-12.306	
268.400	-20.954	
268.500	-20.744	
268.600	3.790	
268.700	-18.509	
268.800	-14.879	
268.900	-44.344	
269.000	-16.796	
269.100	-3.540	
269.200	-4.149	
269.300	-15.400	
269.400	-25.408	
269.500	-20.875	
269.600	-39.849	
269.700	-3.109	
269.800	-1.525	
269.900	-21.587	
270.000	-1.929	
270.100	-29.339	
270.200	-1.709	
270.300	-5.551	
270.400	-32.422	
270.500	2.976	
270.600	-36.881	
270.700	-15.174	
270.800	-0.117	
270.900	-25.891	
271.000	-3.127	
271.100	-21.455	
271.200	-14.165	
271.300	-12.742	
271.400	-1.305	
271.500	-11.307	
271.600	-26.623	
271.700	-24.116	
271.800	-29.986	
271.900	0.276	
272.000	-6.267	
272.100	-19.190	
272.200	-21.814	
272.300	-35.898	
272.400	-10.077	
272.500	5.101	
272.600	-10.053	
272.700	-28.988	
272.800	-13.396	
272.900	-32.191	
273.000	-17.955	
273.100	-10.087	
273.200	-1.167	
273.300	-12.919	
273.400	-12.334	
273.500	-11.178	
273.600	-15.241	
273.700	-11.352	
273.800	-33.522	
273.900	-23.661	
274.000	-4.377	
274.100	-28.439	
274.200	-22.840	
274.300	-18.991	
274.400	-5.521	
274.500	-25.367	
274.600	-2.879	
274.700	-14.532	
274.800	-7.300	
274.900	-12.478	
275.000	-20.688	
275.100	-16.151	
275.200	-42.606	
275.300	10.406	
275.400	19.645	
275.500	-11.874	
275.600	-18.801	
275.700	-28.609	
275.800	-15.626	
275.900	-34.017	
276.000	-19.905	
276.100	-9.310	
276.200	-40.406	
276.300	2.201	
276.400	-20.219	
276.500	-19.520	
276.600	-10.378	
276.700	-29.574	
276.800	6.001	
276.900	-27.716	
277.000	-18.747	
277.100	-4.195	
277.200	-1.970	
277.300	-21.993	
277.400	-28.804	
277.500	-21.678	
277.600	-29.015	
277.700	-13.898	
277.800	-8.855	
277.900	-30.635	
278.000	-29.855	
278.100	-18.624	
278.200	-3.808	
278.300	-8.634	
278.400	-17.198	
278.500	-16.221	
278.600	-10.227	
278.700	-37.526	
278.800	-11.960	
278.900	-24.003	
279.000	-28.629	
279.100	19.213	
279.200	-17.069	
279.300	-31.279	
279.400	-16.381	
279.500	-5.060	
279.600	-24.465	
279.700	-21.577	
279.800	-17.133	
279.900	-20.846	
280.000	-17.944	
280.100	-12.610	
280.200	-19.758	
280.300	-24.434	
280.400	-13.739	
280.500	-29.368	
280.600	-10.675	
280.700	-19.396	
280.800	-6.157	
280.900	-29.169	
281.000	-19.915	
281.100	-21.415	
281.200	-21.296	
281.300	-16.372	
281.400	-12.823	
281.500	-16.957	
281.600	-11.609	
281.700	-29.752	
281.800	-13.814	
281.900	-5.906	
282.000	-8.280	
282.100	-25.622	
282.200	-29.561	
282.300	-1.697	
282.400	10.133	
282.500	-13.409	
282.600	-12.113	
282.700	-27.897	
282.800	-20.255	
282.900	-26.717	
283.000	-26.352	
283.100	-11.335	
283.200	-23.773	
283.300	-27.033	
283.400	-13.790	
283.500	-15.473	
283.600	-19.830	
283.700	-7.040	
283.800	-29.970	
283.900	-20.521	
284.000	-20.840	
284.100	-30.875	
284.200	-7.566	
284.300	-25.033	
284.400	-26.757	
284.500	-4.988	
284.600	-19.926	
284.700	-11.239	
284.800	-13.268	
284.900	-19.067	
285.000	-36.980	
285.100	-25.908	
285.200	-2.743	
285.300	-24.068	
285.400	-16.122	
285.500	0.574	
285.600	-12.909	
285.700	-34.841	
285.800	-15.502	
285.900	-30.009	
286.000	-14.781	
286.100	-17.484	
286.200	-20.714	
286.300	-12.321	
286.400	-7.027	
286.500	-3.301	
286.600	-19.194	
286.700	-35.299	
286.800	-7.415	
286.900	-19.331	
287.000	-9.929	
287.100	-15.645	
287.200	-20.069	
287.300	-10.632	
287.400	-20.010	
287.500	-42.168	
287.600	-17.643	
287.700	-10.204	
287.800	-2.949	
287.900	-19.692	
288.000	-19.347	
288.100	-24.335	
288.200	-13.636	
288.300	-1.786	
288.400	-17.713	
288.500	-26.132	
288.600	-16.237	
288.700	-23.295	
288.800	-6.972	
288.900	-9.600	
289.000	-29.603	
289.100	-7.425	
289.200	-23.276	
289.300	-29.884	
289.400	-0.352	
289.500	-16.798	
289.600	-21.765	
289.700	-27.091	
289.800	-15.739	
289.900	-5.410	
290.000	-13.925	
290.100	-26.000	
290.200	5.869	
290.300	-23.574	
290.400	-25.641	
290.500	-15.413	
290.600	3.429	
290.700	-0.050	
290.800	-25.166	
290.900	-26.140	
291.000	-12.762	
291.100	-26.519	
291.200	-7.374	
291.300	4.367	
291.400	-11.590	
291.500	-9.166	
291.600	-24.236	
291.700	-40.765	
291.800	-24.348	
291.900	-1.228	
292.000	-13.924	
292.100	-16.012	
292.200	-13.355	
292.300	-22.544	
292.400	-16.491	
292.500	-32.924	
292.600	-32.227	
292.700	-19.250	
292.800	-20.467	
292.900	-10.396	
293.000	-8.675	
293.100	-21.215	
293.200	-28.476	
293.300	-21.929	
293.400	-16.531	
293.500	-4.206	
293.600	-6.912	
293.700	-15.470	
293.800	-23.403	
293.900	-28.600	
294.000	-24.536	
294.100	-15.691	
294.200	-9.310	
294.300	-27.246	
294.400	-37.356	
294.500	-28.246	
294.600	-0.978	
294.700	-15.467	
294.800	-16.613	
294.900	-20.394	
295.000	-28.522	
295.100	-14.105	
295.200	-9.193	
295.300	-3.223	
295.400	-16.212	
295.500	-32.373	
295.600	-38.250	
295.700	-14.789	
295.800	0.770	
295.900	13.205	
296.000	-30.622	
296.100	-21.887	
296.200	-5.514	
296.300	-10.724	
296.400	-22.785	
296.500	-8.094	
296.600	-39.119	
296.700	-11.006	
296.800	-7.814	
296.900	-37.066	
297.000	-0.848	
297.100	-14.305	
297.200	-37.541	
297.300	-16.824	
297.400	-23.849	
297.500	-5.865	
297.600	-21.648	
297.700	-13.002	
297.800	-21.587	
297.900	-22.219	
298.000	-39.140	
298.100	-9.780	
298.200	-16.117	
298.300	-13.874	
298.400	-27.437	
298.500	-16.519	
298.600	-28.180	
298.700	-4.577	
298.800	-10.246	
298.900	-21.512	
299.000	-23.526	
299.100	-24.469	
299.200	-16.489	
299.300	-20.741	
299.400	-15.649	
299.500	-38.358	
299.600	-9.886	
299.700	-28.460	
299.800	-18.899	
299.900	-14.564	
300.000	-11.577	
300.100	-17.706	
300.200	-13.708	
300.300	-23.939	
300.400	-12.840	
300.500	-17.617	
300.600	-5.441	
300.700	-4.134	
300.800	-18.769	
300.900	-11.676	
301.000	-25.563	
301.100	-4.639	
301.200	-2.463	
301.300	-15.127	
301.400	-14.154	
301.500	-18.560	
301.600	-16.320	
301.700	-30.583	
301.800	-9.798	
301.900	-23.660	
302.000	-27.786	
302.100	-21.566	
302.200	-23.616	
302.300	-16.207	
302.400	-5.245	
302.500	1.372	
302.600	-36.732	
302.700	-17.691	
302.800	0.757	
302.900	-26.677	
303.000	-5.813	
303.100	-21.118	
303.200	-23.436	
303.300	-17.785	
303.400	-7.224	
303.500	-7.873	
303.600	-26.454	
303.700	-16.021	
303.800	-28.553	
303.900	-20.604	
304.000	-6.408	
304.100	-47.830	
304.200	-3.307	
304.300	-26.292	
304.400	-22.589	
304.500	-14.287	
304.600	-1.577	
304.700	-12.654	
304.800	5.982	
304.900	-20.440	
305.000	-18.892	
305.100	-11.512	
305.200	-12.065	
305.300	-4.311	
305.400	-13.688	
305.500	-22.302	
305.600	-33.191	
305.700	-20.196	
305.800	-7.242	
305.900	-20.197	
306.000	-7.482	
306.100	-25.330	
306.200	-7.662	
306.300	-7.366	
306.400	-20.901	
306.500	-28.612	
306.600	-13.701	
306.700	-4.103	
306.800	-12.569	
306.900	-11.235	
307.000	-6.833	
307.100	-18.992	
307.200	-22.217	
307.300	-31.849	
307.400	-17.302	
307.500	9.469	
307.600	0.802	
307.700	-10.398	
307.800	-15.166	
307.900	-21.623	
308.000	-19.715	
308.100	-4.419	
308.200	-11.581	
308.300	-19.930	
308.400	-24.707	
308.500	-11.932	
308.600	-22.586	
308.700	-5.721	
308.800	-3.556	
308.900	-6.760	
309.000	-27.558	
309.100	-10.132	
309.200	-24.676	
309.300	-4.965	
309.400	-27.399	
309.500	0.926	
309.600	-14.441	
309.700	-16.702	
309.800	-14.455	
309.900	-4.857	
310.000	-29.875	
310.100	-7.742	
310.200	-8.463	
310.300	-14.808	
310.400	-5.593	
310.500	-22.484	
310.600	-19.547	
310.700	-14.343	
310.800	-18.849	
310.900	-35.093	
311.000	2.120	
311.100	-23.811	
311.200	-4.276	
311.300	-19.817	
311.400	-17.495	
311.500	-24.461	
311.600	-2.332	
311.700	-16.512	
311.800	-14.489	
311.900	-18.380	
312.000	-23.498	
312.100	-26.261	
312.200	-21.672	
312.300	-9.509	
312.400	-13.037	
312.500	-16.306	
312.600	-3.246	
312.700	-12.931	
312.800	3.366	
312.900	-22.660	
313.000	-13.551	
313.100	0.407	
313.200	-7.868	
313.300	-14.776	
313.400	-5.558	
313.500	-5.015	
313.600	-11.598	
313.700	-17.456	
313.800	-19.586	
313.900	-21.118	
314.000	-22.425	
314.100	-17.895	
314.200	-15.245	
314.300	-14.708	
314.400	-21.691	
314.500	-19.245	
314.600	13.618	
314.700	-16.281	
314.800	-34.227	
314.900	-11.634	
315.000	-20.874	
315.100	-16.526	
315.200	-2.937	
315.300	-17.171	
315.400	-30.359	
315.500	-10.428	
315.600	-21.440	
315.700	0.936	
315.800	8.287	
315.900	-9.648	
316.000	-24.402	
316.100	-13.635	
316.200	-6.056	
316.300	-13.802	
316.400	-19.087	
316.500	-13.786	
316.600	-32.137	
316.700	-47.147	
316.800	1.443	
316.900	-0.456	
317.000	-21.855	
317.100	-5.807	
317.200	3.651	
317.300	-22.097	
317.400	-27.262	
317.500	-4.643	
317.600	-22.092	
317.700	-4.233	
317.800	-21.803	
317.900	-1.141	
318.000	-10.614	
318.100	-3.380	
318.200	-27.032	
318.300	-22.329	
318.400	-23.882	
318.500	10.008	
318.600	-11.835	
318.700	-15.661	
318.800	-19.699	
318.900	-35.547	
319.000	-22.846	
319.100	-7.321	
319.200	19.461	
319.300	2.289	
319.400	-14.701	
319.500	-14.855	
319.600	-10.384	
319.700	-11.264	
319.800	-4.133	
319.900	-12.411	
320.000	-42.420	
320.100	1.027	
320.200	-14.858	
320.300	12.513	
320.400	-16.851	
320.500	-15.746	
320.600	-2.720	
320.700	-9.361	
320.800	-15.434	
320.900	-16.431	
321.000	-25.711	
321.100	-9.374	
321.200	-12.309	
321.300	-6.925	
321.400	-23.833	
321.500	-22.099	
321.600	2.508	
321.700	-4.424	
321.800	-16.354	
321.900	1.322	
322.000	-20.321	
322.100	-5.793	
322.200	-10.697	
322.300	-3.889	
322.400	-34.326	
322.500	-23.488	
322.600	-9.232	
322.700	-1.738	
322.800	-16.288	
322.900	-12.398	
323.000	-30.680	
323.100	-24.786	
323.200	-24.258	
323.300	-4.207	
323.400	-3.483	
323.500	-23.165	
323.600	-6.918	
323.700	-1.674	
323.800	-13.076	
323.900	5.396	
324.000	-15.480	
324.100	-19.195	
324.200	-27.757	
324.300	-6.708	
324.400	-10.651	
324.500	-6.678	
324.600	-21.141	
324.700	-25.494	
324.800	-14.880	
324.900	-3.716	
325.000	-9.664	
325.100	-16.499	
325.200	-19.554	
325.300	-27.790	
325.400	-10.764	
325.500	-24.411	
325.600	-7.258	
325.700	-5.259	
325.800	-38.422	
325.900	-8.291	
326.000	-9.979	
326.100	-9.088	
326.200	-24.743	
326.300	5.569	
326.400	-27.101	
326.500	-13.816	
326.600	-11.947	
326.700	-12.879	
326.800	0.975	
326.900	-27.264	
327.000	-25.553	
327.100	-16.995	
327.200	-2.843	
327.300	-7.114	
327.400	-27.393	
327.500	-4.804	
327.600	-9.986	
327.700	-27.637	
327.800	-23.289	
327.900	-16.600	
328.000	-0.063	
328.100	-6.350	
328.200	14.786	
328.300	-8.883	
328.400	-27.615	
328.500	-14.098	
328.600	-12.627	
328.700	-13.448	
328.800	-23.958	
328.900	-12.638	
329.000	-25.012	
329.100	-5.001	
329.200	-7.624	
329.300	-15.383	
329.400	-21.421	
329.500	-13.289	
329.600	-6.642	
329.700	-12.801	
329.800	2.625	
329.900	-23.420	
330.000	3.939	
330.100	-23.857	
330.200	-22.775	
330.300	-16.679	
330.400	-13.560	
330.500	-17.579	
330.600	-1.145	
330.700	-7.331	
330.800	-4.559	
330.900	-11.181	
331.000	-7.908	
331.100	-9.386	
331.200	-3.109	
331.300	16.848	
331.400	8.444	
331.500	2.826	
331.600	-3.948	
331.700	2.081	
331.800	4.098	
331.900	-20.716	
332.000	25.972	
332.100	-2.680	
332.200	1.018	
332.300	-8.514	
332.400	9.970	
332.500	-2.816	
332.600	12.360	
332.700	24.249	
332.800	-1.779	
332.900	6.289	
333.000	17.248	
333.100	15.676	
333.200	21.405	
333.300	-3.740	
333.400	7.301	
333.500	-4.003	
333.600	-17.650	
333.700	27.314	
333.800	7.682	
333.900	2.678	
334.000	10.731	
334.100	5.327	
334.200	5.207	
334.300	3.018	
334.400	11.530	
334.500	29.274	
334.600	30.507	
334.700	2.193	
334.800	-6.643	
334.900	25.589	
335.000	15.751	
335.100	5.277	
335.200	-14.349	
335.300	7.162	
335.400	8.419	
335.500	5.893	
335.600	16.651	
335.700	6.317	
335.800	3.067	
335.900	19.037	
336.000	23.962	
336.100	5.150	
336.200	19.200	
336.300	-13.734	
336.400	-10.664	
336.500	10.764	
336.600	19.668	
336.700	27.759	
336.800	4.359	
336.900	12.555	
337.000	24.514	
337.100	5.694	
337.200	17.755	
337.300	11.684	
337.400	24.174	
337.500	13.053	
337.600	18.969	
337.700	-10.511	
337.800	18.482	
337.900	9.619	
338.000	6.924	
338.100	-8.193	
338.200	15.396	
338.300	24.666	
338.400	17.494	
338.500	15.867	
338.600	6.700	
338.700	-5.472	
338.800	13.422	
338.900	10.426	
339.000	23.417	
339.100	2.992	
339.200	33.697	
339.300	10.057	
339.400	19.646	
339.500	9.867	
339.600	34.567	
339.700	30.727	
339.800	12.151	
339.900	-11.076	
340.000	18.840	
340.100	9.448	
340.200	29.497	
340.300	44.718	
340.400	5.740	
340.500	3.562	
340.600	21.887	
340.700	29.465	
340.800	20.144	
340.900	22.271	
341.000	18.329	
341.100	-10.131	
341.200	43.785	
341.300	12.887	
341.400	35.714	
341.500	20.634	
341.600	30.508	
341.700	12.912	
341.800	21.657	
341.900	29.510	
342.000	24.767	
342.100	19.315	
342.200	2.071	
342.300	28.674	
342.400	27.145	
342.500	23.809	
342.600	46.934	
342.700	36.317	
342.800	20.798	
342.900	7.177	
343.000	23.554	
343.100	41.035	
343.200	18.125	
343.300	22.597	
343.400	29.476	
343.500	29.830	
343.600	38.828	
343.700	21.114	
343.800	42.776	
343.900	36.798	
344.000	18.439	
344.100	17.278	
344.200	22.262	
344.300	46.303	
344.400	9.477	
344.500	38.613	
344.600	24.097	
344.700	29.917	
344.800	30.116	
344.900	44.573	
345.000	34.407	
345.100	24.814	
345.200	25.380	
345.300	24.523	
345.400	40.098	
345.500	27.547	
345.600	32.069	
345.700	37.568	
345.800	29.778	
345.900	18.968	
346.000	28.424	
346.100	46.104	
346.200	26.391	
346.300	37.748	
346.400	30.372	
346.500	33.738	
346.600	27.256	
346.700	39.008	
346.800	32.980	
346.900	17.977	
347.000	36.959	
347.100	51.055	
347.200	43.122	
347.300	49.108	
347.400	37.709	
347.500	4.710	
347.600	40.595	
347.700	41.784	
347.800	39.190	
347.900	41.899	
348.000	36.902	
348.100	27.996	
348.200	45.911	
348.300	31.618	
348.400	38.664	
348.500	66.138	
348.600	31.264	
348.700	21.409	
348.800	49.649	
348.900	41.829	
349.000	53.851	
349.100	47.624	
349.200	34.016	
349.300	12.820	
349.400	51.304	
349.500	39.441	
349.600	40.198	
349.700	49.342	
349.800	39.740	
349.900	37.216	
350.000	46.105	
350.100	38.654	
350.200	32.534	
350.300	23.289	
350.400	30.592	
350.500	50.669	
350.600	54.858	
350.700	57.349	
350.800	48.529	
350.900	17.849	
351.000	46.689	
351.100	20.842	
351.200	59.822	
351.300	47.194	
351.400	56.060	
351.500	42.135	
351.600	37.553	
351.700	30.855	
351.800	56.350	
351.900	39.895	
352.000	39.722	
352.100	45.760	
352.200	40.527	
352.300	22.384	
352.400	27.396	
352.500	46.129	
352.600	22.883	
352.700	59.165	
352.800	44.276	
352.900	30.600	
353.000	52.468	
353.100	42.952	
353.200	46.556	
353.300	26.526	
353.400	33.681	
353.500	47.269	
353.600	31.347	
353.700	38.614	
353.800	40.048	
353.900	32.244	
354.000	34.472	
354.100	29.846	
354.200	54.484	
354.300	48.931	
354.400	40.900	
354.500	33.920	
354.600	40.532	
354.700	49.664	
354.800	50.107	
354.900	42.342	
355.000	17.854	
355.100	32.140	
355.200	44.178	
355.300	59.524	
355.400	56.367	
355.500	28.158	
355.600	36.093	
355.700	49.546	
355.800	29.672	
355.900	45.460	
356.000	57.602	
356.100	40.823	
356.200	40.380	
356.300	28.006	
356.400	36.056	
356.500	44.870	
356.600	50.130	
356.700	41.899	
356.800	46.126	
356.900	37.351	
357.000	21.580	
357.100	39.786	
357.200	53.880	
357.300	40.762	
357.400	37.797	
357.500	46.128	
357.600	54.579	
357.700	48.985	
357.800	46.239	
357.900	39.237	
358.000	27.736	
358.100	35.421	
358.200	53.168	
358.300	56.574	
358.400	36.526	
358.500	55.596	
358.600	46.979	
358.700	37.250	
358.800	57.266	
358.900	56.220	
359.000	42.342	
359.100	43.111	
359.200	17.144	
359.300	56.256	
359.400	53.665	
359.500	54.175	
359.600	41.131	
359.700	33.266	
359.800	45.502	
359.900	32.634	
360.000	60.781	
360.100	22.635	
360.200	52.983	
360.300	34.854	
360.400	31.565	
360.500	34.447	
360.600	46.394	
360.700	56.869	
360.800	56.635	
360.900	32.261	
361.000	31.923	
361.100	41.358	
361.200	49.450	
361.300	53.197	
361.400	47.924	
361.500	36.746	
361.600	41.559	
361.700	51.554	
361.800	39.015	
361.900	32.574	
362.000	39.196	
362.100	40.917	
362.200	40.726	
362.300	39.513	
362.400	50.556	
362.500	36.988	
362.600	44.319	
362.700	48.820	
362.800	16.982	
362.900	46.075	
363.000	40.083	
363.100	42.317	
363.200	31.363	
363.300	46.037	
363.400	49.491	
363.500	57.186	
363.600	61.851	
363.700	43.018	
363.800	23.523	
363.900	39.953	
364.000	26.494	
364.100	57.426	
364.200	34.706	
364.300	33.320	
364.400	41.577	
364.500	47.888	
364.600	37.654	
364.700	39.274	
364.800	44.881	
364.900	45.714	
365.000	50.269	
365.100	30.126	
365.200	39.476	
365.300	54.127	
365.400	57.636	
365.500	21.225	
365.600	26.049	
365.700	38.508	
365.800	40.637	
365.900	50.397	
366.000	20.563	
366.100	45.564	
366.200	39.951	
366.300	49.345	
366.400	52.456	
366.500	33.646	
366.600	48.741	
366.700	34.433	
366.800	30.585	
366.900	41.688	
367.000	41.338	
367.100	36.694	
367.200	50.948	
367.300	26.712	
367.400	44.068	
367.500	50.576	
367.600	49.990	
367.700	45.239	
367.800	44.031	
367.900	29.730	
368.000	44.879	
368.100	34.955	
368.200	43.795	
368.300	56.325	
368.400	41.797	
368.500	32.043	
368.600	35.586	
368.700	34.513	
368.800	47.406	
368.900	51.809	
369.000	44.339	
369.100	13.014	
369.200	54.374	
369.300	27.047	
369.400	53.000	
369.500	54.956	
369.600	43.798	
369.700	22.516	
369.800	48.166	
369.900	43.751	
370.000	50.885	
370.100	26.122	
370.200	51.667	
370.300	14.924	
370.400	51.113	
370.500	46.721	
370.600	77.568	
370.700	37.218	
370.800	26.307	
370.900	39.794	
371.000	44.906	
371.100	34.261	
371.200	41.870	
371.300	42.732	
371.400	40.712	
371.500	46.614	
371.600	56.296	
371.700	29.778	
371.800	53.572	
371.900	42.109	
372.000	36.763	
372.100	30.236	
372.200	33.450	
372.300	43.574	
372.400	44.678	
372.500	44.243	
372.600	35.656	
372.700	38.704	
372.800	50.879	
372.900	42.528	
373.000	32.689	
373.100	37.077	
373.200	20.963	
373.300	24.797	
373.400	54.873	
373.500	60.164	
373.600	16.786	
373.700	46.946	
373.800	27.016	
373.900	44.894	
374.000	38.282	
374.100	49.855	
374.200	42.984	
374.300	32.309	
374.400	33.228	
374.500	23.654	
374.600	47.118	
374.700	54.788	
374.800	38.574	
374.900	11.489	
375.000	33.400	
375.100	36.797	
375.200	31.373	
375.300	42.698	
375.400	59.713	
375.500	33.838	
375.600	23.196	
375.700	26.612	
375.800	57.504	
375.900	39.297	
376.000	39.784	
376.100	52.974	
376.200	21.572	
376.300	41.326	
376.400	46.830	
376.500	39.779	
376.600	56.761	
376.700	34.631	
376.800	24.399	
376.900	30.865	
377.000	49.836	
377.100	34.791	
377.200	13.019	
377.300	52.597	
377.400	33.947	
377.500	42.297	
377.600	51.873	
377.700	41.317	
377.800	29.166	
377.900	13.134	
378.000	55.029	
378.100	44.395	
378.200	29.322	
378.300	36.546	
378.400	38.638	
378.500	44.496	
378.600	40.938	
378.700	46.705	
378.800	39.309	
378.900	44.475	
379.000	33.328	
379.100	54.725	
379.200	26.940	
379.300	41.745	
379.400	20.338	
379.500	39.767	
379.600	24.044	
379.700	29.801	
379.800	51.036	
379.900	35.783	
380.000	42.925	
380.100	26.406	
380.200	36.756	
380.300	43.632	
380.400	40.310	
380.500	39.647	
380.600	28.318	
380.700	49.604	
380.800	28.648	
380.900	39.248	
381.000	48.128	
381.100	33.017	
381.200	37.729	
381.300	32.926	
381.400	36.866	
381.500	22.227	
381.600	58.746	
381.700	47.564	
381.800	17.334	
381.900	14.687	
382.000	41.091	
382.100	56.998	
382.200	63.366	
382.300	42.388	
382.400	40.821	
382.500	18.436	
382.600	27.549	
382.700	48.696	
382.800	39.390	
382.900	34.986	
383.000	30.100	
383.100	34.461	
383.200	9.648	
383.300	38.077	
383.400	46.778	
383.500	29.426	
383.600	39.621	
383.700	29.248	
383.800	31.156	
383.900	49.841	
384.000	49.627	
384.100	41.652	
384.200	31.114	
384.300	23.322	
384.400	37.573	
384.500	35.607	
384.600	37.641	
384.700	14.444	
384.800	45.962	
384.900	28.948	
385.000	33.700	
385.100	41.907	
385.200	42.826	
385.300	27.451	
385.400	45.282	
385.500	30.789	
385.600	43.956	
385.700	36.299	
385.800	28.603	
385.900	47.102	
386.000	16.457	
386.100	20.818	
386.200	36.985	
386.300	48.529	
386.400	27.018	
386.500	41.224	
386.600	15.757	
386.700	25.083	
386.800	53.717	
386.900	14.676	
387.000	39.962	
387.100	31.719	
387.200	37.281	
387.300	31.282	
387.400	41.701	
387.500	41.669	
387.600	37.415	
387.700	27.580	
387.800	38.581	
387.900	40.838	
388.000	29.939	
388.100	36.292	
388.200	30.514	
388.300	26.482	
388.400	21.288	
388.500	42.648	
388.600	41.984	
388.700	29.622	
388.800	38.820	
388.900	44.713	
389.000	17.821	
389.100	48.790	
389.200	47.825	
389.300	18.592	
389.400	42.288	
389.500	37.631	
389.600	36.528	
389.700	41.196	
389.800	68.350	
389.900	23.981	
390.000	28.789	
390.100	15.613	
390.200	39.798	
390.300	41.974	
390.400	39.530	
390.500	30.096	
390.600	18.418	
390.700	24.447	
390.800	34.563	
390.900	34.100	
391.000	23.534	
391.100	30.081	
391.200	23.674	
391.300	16.849	
391.400	35.857	
391.500	45.330	
391.600	28.665	
391.700	25.519	
391.800	21.847	
391.900	26.995	
392.000	21.644	
392.100	21.997	
392.200	31.084	
392.300	15.170	
392.400	-13.495	
392.500	6.784	
392.600	3.605	
392.700	30.893	
392.800	11.488	
392.900	4.200	
393.000	9.111	
393.100	8.959	
393.200	11.034	
393.300	31.067	
393.400	21.745	
393.500	18.867	
393.600	6.763	
393.700	5.912	
393.800	-7.024	
393.900	16.495	
394.000	8.948	
394.100	20.409	
394.200	-0.612	
394.300	7.273	
394.400	8.931	
394.500	4.797	
394.600	17.977	
394.700	4.968	
394.800	-7.218	
394.900	16.796	
395.000	12.080	
395.100	16.609	
395.200	9.730	
395.300	-12.841	
395.400	6.187	
395.500	6.821	
395.600	13.538	
395.700	2.400	
395.800	18.128	
395.900	-1.552	
396.000	28.000	
396.100	11.289	
396.200	-0.949	
396.300	-2.751	
396.400	13.425	
396.500	-7.476	
396.600	-13.129	
396.700	27.442	
396.800	0.534	
396.900	2.685	
397.000	4.970	
397.100	3.215	
397.200	-11.922	
397.300	8.078	
397.400	3.101	
397.500	12.464	
397.600	14.507	
397.700	-12.006	
397.800	-4.500	
397.900	14.321	
398.000	1.384	
398.100	-7.411	
398.200	-2.931	
398.300	-8.651	
398.400	-6.111	
398.500	19.194	
398.600	8.709	
398.700	-13.066	
398.800	-38.513	
398.900	-5.199	
399.000	15.046	
399.100	-0.709	
399.200	-15.484	
399.300	14.889	
399.400	-4.168	
399.500	-9.726	
399.600	-1.601	
399.700	2.882	
399.800	-2.721	
399.900	8.009	
400.000	-9.354	
400.100	-5.895	
400.200	4.005	
400.300	15.838	
400.400	5.761	
400.500	-41.620	
400.600	-14.726	
400.700	-15.630	
400.800	-13.831	
400.900	16.014	
401.000	-9.943	
401.100	-0.943	
401.200	-16.585	
401.300	3.055	
401.400	-13.065	
401.500	-8.542	
401.600	-7.768	
401.700	-1.093	
401.800	0.017	
401.900	-11.120	
402.000	-10.707	
402.100	-4.648	
402.200	-3.315	
402.300	-16.548	
402.400	-2.520	
402.500	0.647	
402.600	8.019	
402.700	-9.654	
402.800	-7.850	
402.900	-23.926	
403.000	-31.995	
403.100	-11.629	
403.200	-14.968	
403.300	-11.848	
403.400	-28.370	
403.500	1.943	
403.600	-21.249	
403.700	-16.268	
403.800	-17.793	
403.900	-7.401	
404.000	-8.062	
404.100	-9.548	
404.200	-16.022	
404.300	-12.387	
404.400	-3.005	
404.500	-8.590	
404.600	-6.971	
404.700	-18.846	
404.800	11.105	
404.900	-26.141	
405.000	2.672	
405.100	1.320	
405.200	-30.833	
405.300	-19.382	
405.400	-18.384	
405.500	-8.870	
405.600	-22.237	
405.700	-7.378	
405.800	-20.434	
405.900	-10.478	
406.000	-10.699	
406.100	-16.483	
406.200	-0.474	
406.300	-17.294	
406.400	1.504	
406.500	-1.680	
406.600	-29.703	
406.700	-17.522	
406.800	-18.623	
406.900	-32.150	
407.000	-11.017	
407.100	-36.440	
407.200	1.315	
407.300	-2.459	
407.400	-20.057	
407.500	-9.353	
407.600	-20.198	
407.700	-27.968	
407.800	-14.178	
407.900	-6.826	
408.000	-20.474	
408.100	-17.606	
408.200	-15.996	
408.300	-32.679	
408.400	-10.008	
408.500	-26.211	
408.600	-13.204	
408.700	-7.000	
408.800	0.863	
408.900	-37.600	
409.000	-7.033	
409.100	-3.291	
409.200	-35.749	
409.300	-20.760	
409.400	-12.156	
409.500	-27.087	
409.600	-9.409	
409.700	-11.278	
409.800	2.021	
409.900	-14.373	
410.000	-21.973	
410.100	-6.560	
410.200	-21.580	
410.300	-9.518	
410.400	-27.370	
410.500	-9.785	
410.600	-26.183	
410.700	-15.154	
410.800	-17.094	
410.900	-6.634	
411.000	-11.187	
411.100	-22.380	
411.200	-21.452	
411.300	-19.401	
411.400	8.632	
411.500	-12.991	
411.600	-25.276	
411.700	-12.035	
411.800	-23.953	
411.900	-31.626	
412.000	-16.266	
412.100	-33.310	
412.200	-16.536	
412.300	-12.791	
412.400	-25.548	
412.500	-18.019	
412.600	-10.416	
412.700	-16.138	
412.800	-41.187	
412.900	-18.966	
413.000	-14.782	
413.100	-9.857	
413.200	-25.372	
413.300	-14.877	
413.400	-18.111	
413.500	-25.077	
413.600	-7.682	
413.700	-33.471	
413.800	-13.229	
413.900	-26.755	
414.000	-25.331	
414.100	-17.837	
414.200	-11.363	
414.300	-5.077	
414.400	-2.414	
414.500	-24.385	
414.600	-16.108	
414.700	-44.054	
414.800	-20.883	
414.900	-10.331	
415.000	-23.091	
415.100	-43.830	
415.200	-19.696	
415.300	-28.822	
415.400	0.485	
415.500	-12.407	
415.600	-9.694	
415.700	-21.883	
415.800	-37.139	
415.900	-23.484	
416.000	-16.977	
416.100	-14.974	
416.200	-35.212	
416.300	-12.245	
416.400	-20.337	
416.500	-23.539	
416.600	-6.179	
416.700	-29.955	
416.800	-12.369	
416.900	-30.377	
417.000	-21.719	
417.100	-21.140	
417.200	-22.036	
417.300	-7.646	
417.400	-30.665	
417.500	-5.886	
417.600	-15.534	
417.700	-23.001	
417.800	-21.773	
417.900	-11.265	
418.000	-19.675	
418.100	-44.860	
418.200	-31.992	
418.300	-5.541	
418.400	-10.547	
418.500	-12.225	
418.600	-47.736	
418.700	-24.002	
418.800	-7.828	
418.900	3.505	
419.000	-13.376	
419.100	-14.582	
419.200	-25.436	
419.300	-22.747	
419.400	-26.358	
419.500	-3.233	
419.600	-15.424	
419.700	-19.053	
419.800	-22.093	
419.900	-24.700	
420.000	-18.505	
420.100	0.760	
420.200	-19.069	
420.300	-8.916	
420.400	-25.941	
420.500	-11.661	
420.600	-19.458	
420.700	-18.895	
420.800	-15.976	
420.900	-9.029	
421.000	-9.839	
421.100	-15.488	
421.200	-8.455	
421.300	-14.169	
421.400	-12.043	
421.500	-17.729	
421.600	-41.113	
421.700	-10.723	
421.800	-5.819	
421.900	-6.950	
422.000	-26.804	
422.100	-30.773	
422.200	-26.018	
422.300	-21.733	
422.400	-9.099	
422.500	-22.498	
422.600	-31.541	
422.700	-17.259	
422.800	3.284	
422.900	-25.597	
423.000	-14.595	
423.100	-18.153	
423.200	-10.786	
423.300	-20.593	
423.400	-25.873	
423.500	-27.128	
423.600	-5.123	
423.700	-25.537	
423.800	-23.257	
423.900	-10.830	
424.000	-27.852	
424.100	-28.499	
424.200	-15.377	
424.300	-15.537	
424.400	-16.646	
424.500	-13.107	
424.600	-28.134	
424.700	-27.980	
424.800	-17.814	
424.900	-24.303	
425.000	-12.508	
425.100	-8.217	
425.200	-18.442	
425.300	-16.870	
425.400	-4.992	
425.500	-25.502	
425.600	-30.385	
425.700	-19.509	
425.800	-15.573	
425.900	-20.311	
426.000	-11.325	
426.100	-29.820	
426.200	-13.490	
426.300	-1.536	
426.400	-21.914	
426.500	-17.720	
426.600	-6.840	
426.700	-11.477	
426.800	-6.767	
426.900	-24.484	
427.000	-18.281	
427.100	-16.274	
427.200	-20.135	
427.300	-15.636	
427.400	-25.693	
427.500	-23.857	
427.600	-8.417	
427.700	-12.426	
427.800	-21.352	
427.900	-17.473	
428.000	-22.334	
428.100	-33.874	
428.200	-20.888	
428.300	-2.609	
428.400	-7.781	
428.500	-14.611	
428.600	-28.209	
428.700	-25.850	
428.800	-23.253	
428.900	-6.454	
429.000	-22.175	
429.100	-23.716	
429.200	-33.581	
429.300	-11.084	
429.400	-23.076	
429.500	-21.552	
429.600	-20.199	
429.700	-12.980	
429.800	-28.284	
429.900	-23.895	
430.000	0.661	
430.100	-8.058	
430.200	-8.162	
430.300	-44.893	
430.400	-28.241	
430.500	-7.884	
430.600	-12.763	
430.700	-12.925	
430.800	7.559	
430.900	-22.336	
431.000	-23.573	
431.100	-10.729	
431.200	-15.566	
431.300	-19.976	
431.400	-26.188	
431.500	-27.016	
431.600	-29.206	
431.700	-9.239	
431.800	-2.830	
431.900	-19.462	
432.000	-9.769	
432.100	-42.499	
432.200	-22.164	
432.300	-8.841	
432.400	-22.961	
432.500	-25.707	
432.600	-22.140	
432.700	-7.973	
432.800	-19.383	
432.900	-20.858	
433.000	-14.528	
433.100	-28.824	
433.200	-31.241	
433.300	-22.483	
433.400	-20.985	
433.500	-21.408	
433.600	-21.522	
433.700	-18.329	
433.800	-25.502	
433.900	-30.829	
434.000	3.088	
434.100	-0.312	
434.200	-11.080	
434.300	-29.353	
434.400	-25.546	
434.500	-14.761	
434.600	-17.698	
434.700	-17.523	
434.800	-12.334	
434.900	-17.442	
435.000	-24.055	
435.100	-10.559	
435.200	-10.403	
435.300	-28.327	
435.400	-7.288	
435.500	-20.597	
435.600	-26.918	
435.700	-12.125	
435.800	-6.016	
435.900	-8.868	
436.000	-10.423	
436.100	-21.228	
436.200	-35.791	
436.300	-35.295	
436.400	-30.875	
436.500	-7.828	
436.600	-12.642	
436.700	-11.525	
436.800	-24.453	
436.900	-15.224	
437.000	-27.717	
437.100	-19.654	
437.200	-1.913	
437.300	-19.404	
437.400	-34.580	
437.500	2.536	
437.600	-3.854	
437.700	-9.957	
437.800	-30.048	
437.900	-32.017	
438.000	-19.376	
438.100	-21.904	
438.200	-20.354	
438.300	-20.469	
438.400	-10.031	
438.500	-27.168	
438.600	-24.753	
438.700	-22.958	
438.800	0.430	
438.900	-16.877	
439.000	-10.204	
439.100	-21.859	
439.200	-21.216	
439.300	-15.517	
439.400	-11.642	
439.500	-15.754	
439.600	-19.345	
439.700	-31.727	
439.800	-10.424	
439.900	-22.968	
440.000	-7.262	
440.100	-16.446	
440.200	-14.504	
440.300	-35.450	
440.400	-4.899	
440.500	-28.364	
440.600	-13.282	
440.700	-17.022	
440.800	-6.138	
440.900	-24.024	
441.000	-16.181	
441.100	-12.482	
441.200	-18.408	
441.300	0.566	
441.400	-22.452	
441.500	-13.351	
441.600	-28.989	
441.700	-28.180	
441.800	-16.874	
441.900	-19.259	
442.000	-32.303	
442.100	-11.862	
442.200	-5.130	
442.300	-21.856	
442.400	-23.444	
442.500	-22.815	
442.600	-15.875	
442.700	-29.055	
442.800	-7.449	
442.900	-10.462	
443.000	-8.617	
443.100	-0.282	
443.200	-28.711	
443.300	-28.082	
443.400	-16.324	
443.500	-7.110	
443.600	-9.591	
443.700	-12.337	
443.800	-24.222	
443.900	-10.459	
444.000	-12.800	
444.100	-25.337	
444.200	-21.100	
444.300	-19.899	
444.400	-33.950	
444.500	-34.984	
444.600	-22.092	
444.700	-11.110	
444.800	-9.762	
444.900	-36.809	
445.000	-14.846	
445.100	-19.618	
445.200	-6.566	
445.300	-7.934	
445.400	-19.224	
445.500	-21.085	
445.600	-28.297	
445.700	-13.315	
445.800	1.778	
445.900	-18.708	
446.000	-39.328	
446.100	-44.011	
446.200	-33.263	
446.300	-19.284	
446.400	-20.867	
446.500	-12.718	
446.600	-15.866	
446.700	-38.094	
446.800	-10.279	
446.900	-11.866	
447.000	4.393	
447.100	-21.593	
447.200	-14.455	
447.300	-27.584	
447.400	-11.083	
447.500	-20.122	
447.600	-5.548	
447.700	-19.656	
447.800	-25.546	
447.900	-25.686	
448.000	-21.976	
448.100	-14.618	
448.200	-3.915	
448.300	-43.336	
448.400	-29.606	
448.500	-15.160	
448.600	-18.387	
448.700	-26.506	
448.800	-8.998	
448.900	-0.939	
449.000	-20.291	
449.100	-19.824	
449.200	-32.815	
449.300	0.882	
449.400	-35.323	
449.500	-19.952	
449.600	-2.700	
449.700	-25.842	
449.800	-8.718	
449.900	-9.547	
450.000	-23.335	
450.100	-4.579	
450.200	-24.696	
450.300	-15.335	
450.400	-26.908	
450.500	-3.497	
450.600	-7.595	
450.700	-31.192	
450.800	-24.446	
450.900	-30.464	
451.000	-20.828	
451.100	-11.883	
451.200	-17.347	
451.300	-31.073	
451.400	-21.999	
451.500	-10.538	
451.600	-15.692	
451.700	-4.958	
451.800	-7.667	
451.900	-14.708	
452.000	-21.958	
452.100	-12.886	
452.200	-12.847	
452.300	-24.810	
452.400	6.833	
452.500	-12.094	
452.600	-28.663	
452.700	-21.766	
452.800	-5.675	
452.900	-12.588	
453.000	-30.908	
453.100	-26.265	
453.200	-35.909	
453.300	-25.391	
453.400	-4.575	
453.500	-18.907	
453.600	-12.826	
453.700	-24.068	
453.800	-21.058	
453.900	-22.799	
454.000	-24.890	
454.100	-8.562	
454.200	-20.899	
454.300	-34.432	
454.400	-14.522	
454.500	-10.698	
454.600	-21.133	
454.700	-0.763	
454.800	-20.850	
454.900	-18.269	
455.000	-34.266	
455.100	-15.871	
455.200	-29.653	
455.300	-14.122	
455.400	-24.883	
455.500	-22.283	
455.600	-11.222	
455.700	-16.709	
455.800	-16.255	
455.900	-22.313	
456.000	-24.583	
456.100	-22.667	
456.200	-35.493	
456.300	-3.758	
456.400	-10.246	
456.500	-16.105	
456.600	-9.885	
456.700	-9.785	
456.800	-29.454	
456.900	-11.165	
457.000	4.650	
457.100	-24.864	
457.200	-30.670	
457.300	-33.891	
457.400	-7.425	
457.500	-26.071	
457.600	-11.804	
457.700	-15.040	
457.800	-18.102	
457.900	-19.797	
458.000	0.700	
458.100	-15.563	
458.200	-9.501	
458.300	-24.618	
458.400	-24.718	
458.500	-17.226	
458.600	-20.248	
458.700	-19.711	
458.800	-28.822	
458.900	-10.859	
459.000	-8.279	
459.100	-20.101	
459.200	-9.384	
459.300	-30.184	
459.400	3.292	
459.500	-9.835	
459.600	-23.002	
459.700	-18.887	
459.800	-21.294	
459.900	11.058	
460.000	-18.965	
460.100	-23.019	
460.200	-42.587	
460.300	-21.953	
460.400	1.787	
460.500	-4.769	
460.600	-8.873	
460.700	-31.933	
460.800	-22.174	
460.900	-0.473	
461.000	-2.448	
461.100	-26.150	
461.200	-7.463	
461.300	-16.584	
461.400	-14.530	
461.500	-0.797	
461.600	-22.761	
461.700	4.630	
461.800	-6.303	
461.900	-12.943	
462.000	-37.630	
462.100	-6.952	
462.200	-30.122	
462.300	-9.849	
462.400	-9.851	
462.500	-32.350	
462.600	-0.320	
462.700	-13.809	
462.800	-26.567	
462.900	-31.822	
463.000	-18.743	
463.100	-24.882	
463.200	-16.656	
463.300	-37.390	
463.400	-3.868	
463.500	-20.365	
463.600	-9.136	
463.700	-14.014	
463.800	-7.484	
463.900	-19.281	
464.000	-29.694	
464.100	-15.305	
464.200	-22.761	
464.300	-35.688	
464.400	-9.853	
464.500	-9.716	
464.600	-12.104	
464.700	-26.381	
464.800	-25.751	
464.900	-13.931	
465.000	-17.929	
465.100	-7.035	
465.200	-32.772	
465.300	0.223	
465.400	-34.265	
465.500	-24.424	
465.600	-8.729	
465.700	-17.626	
465.800	-13.257	
465.900	-23.861	
466.000	-4.586	
466.100	-17.931	
466.200	-27.594	
466.300	-0.497	
466.400	-8.146	
466.500	-24.512	
466.600	-21.716	
466.700	-12.437	
466.800	-25.184	
466.900	-20.276	
467.000	-16.716	
467.100	-13.693	
467.200	-21.532	
467.300	-12.324	
467.400	-14.302	
467.500	-19.799	
467.600	-2.950	
467.700	-13.567	
467.800	-23.769	
467.900	-28.086	
468.000	-4.486	
468.100	-11.794	
468.200	-40.605	
468.300	-1.998	
468.400	-20.954	
468.500	-25.401	
468.600	-8.200	
468.700	-20.260	
468.800	-21.727	
468.900	-14.431	
469.000	-25.750	
469.100	-17.971	
469.200	-9.014	
469.300	-10.519	
469.400	-12.944	
469.500	-32.812	
469.600	-18.905	
469.700	-6.138	
469.800	-6.223	
469.900	-18.783	
470.000	-18.522	
470.100	-4.044	
470.200	-10.188	
470.300	-20.188	
470.400	9.734	
470.500	-9.661	
470.600	-24.442	
470.700	-29.152	
470.800	-21.347	
470.900	-10.287	
471.000	5.059	
471.100	-2.284	
471.200	-34.683	
471.300	-17.153	
471.400	-10.813	
471.500	4.838	
471.600	-28.051	
471.700	-10.215	
471.800	-23.801	
471.900	-16.137	
472.000	-33.192	
472.100	-9.540	
472.200	-16.976	
472.300	7.033	
472.400	-23.709	
472.500	-31.280	
472.600	-12.295	
472.700	1.210	
472.800	-5.761	
472.900	-14.021	
473.000	-32.618	
473.100	-17.553	
473.200	-13.447	
473.300	-17.080	
473.400	-14.700	
473.500	-17.354	
473.600	-37.508	
473.700	-10.044	
473.800	-0.924	
473.900	-27.422	
474.000	-23.316	
474.100	-37.332	
474.200	-28.362	
474.300	6.895	
474.400	-7.756	
474.500	-35.197	
474.600	-27.314	
474.700	-21.813	
474.800	-15.322	
474.900	0.427	
475.000	-9.295	
475.100	-14.083	
475.200	-29.913	
475.300	-33.843	
475.400	-9.655	
475.500	-3.723	
475.600	-35.472	
475.700	-17.435	
475.800	5.200	
475.900	-6.397	
476.000	-18.332	
476.100	-22.849	
476.200	-11.419	
476.300	-2.413	
476.400	-19.740	
476.500	-29.611	
476.600	-17.366	
476.700	-15.999	
476.800	6.149	
476.900	-21.867	
477.000	-6.507	
477.100	-17.719	
477.200	-11.409	
477.300	-13.807	
477.400	-14.752	
477.500	-15.644	
477.600	-21.567	
477.700	-15.785	
477.800	-1.533	
477.900	-9.111	
478.000	-0.381	
478.100	-15.891	
478.200	-9.404	
478.300	-28.938	
478.400	-2.382	
478.500	-8.991	
478.600	-18.914	
478.700	-13.316	
478.800	3.361	
478.900	-19.567	
479.000	-21.551	
479.100	-10.974	
479.200	-8.743	
479.300	-6.626	
479.400	-24.935	
479.500	-12.005	
479.600	-12.573	
479.700	-9.504	
479.800	-14.824	
479.900	-13.230	
480.000	-14.916	
480.100	-16.289	
480.200	-3.464	
480.300	-4.199	
480.400	-15.515	
480.500	-17.996	
480.600	-26.371	
480.700	-6.391	
480.800	-8.291	
480.900	-7.814	
481.000	-3.346	
481.100	2.256	
481.200	-8.978	
481.300	0.991	
481.400	11.503	
481.500	17.781	
481.600	3.841	
481.700	-4.303	
481.800	-18.829	
481.900	9.590	
482.000	1.535	
482.100	6.141	
482.200	2.640	
482.300	6.529	
482.400	-11.795	
482.500	12.923	
482.600	-0.153	
482.700	-1.432	
482.800	7.897	
482.900	4.239	
483.000	25.217	
483.100	11.793	
483.200	-15.621	
483.300	-4.089	
483.400	9.493	
483.500	-1.545	
483.600	9.198	
483.700	6.640	
483.800	16.706	
483.900	6.538	
484.000	2.719	
484.100	21.418	
484.200	-4.350	
484.300	10.117	
484.400	23.903	
484.500	2.176	
484.600	9.517	
484.700	4.277	
484.800	25.096	
484.900	-13.460	
485.000	4.238	
485.100	11.508	
485.200	10.043	
485.300	-2.194	
485.400	-11.673	
485.500	5.911	
485.600	10.355	
485.700	0.272	
485.800	16.518	
485.900	3.324	
486.000	-1.600	
486.100	18.454	
486.200	13.659	
486.300	17.943	
486.400	-12.495	
486.500	17.212	
486.600	14.471	
486.700	2.403	
486.800	-4.266	
486.900	2.148	
487.000	12.294	
487.100	6.554	
487.200	6.827	
487.300	17.169	
487.400	6.182	
487.500	13.486	
487.600	7.321	
487.700	16.177	
487.800	6.775	
487.900	27.517	
488.000	20.656	
488.100	11.984	
488.200	-18.397	
488.300	7.907	
488.400	20.892	
488.500	12.482	
488.600	0.843	
488.700	-4.880	
488.800	4.879	
488.900	13.308	
489.000	-0.339	
489.100	17.595	
489.200	10.567	
489.300	20.371	
489.400	1.020	
489.500	32.629	
489.600	6.985	
489.700	36.603	
489.800	25.438	
489.900	8.415	
490.000	4.335	
490.100	22.110	
490.200	26.474	
490.300	22.822	
490.400	24.884	
490.500	13.202	
490.600	14.098	
490.700	13.708	
490.800	24.804	
490.900	37.121	
491.000	14.398	
491.100	35.037	
491.200	16.813	
491.300	3.988	
491.400	37.467	
491.500	30.183	
491.600	-3.765	
491.700	11.181	
491.800	21.329	
491.900	15.005	
492.000	16.962	
492.100	32.482	
492.200	22.357	
492.300	21.182	
492.400	9.563	
492.500	27.366	
492.600	26.796	
492.700	26.310	
492.800	14.618	
492.900	24.901	
493.000	37.571	
493.100	24.644	
493.200	8.476	
493.300	50.528	
493.400	30.185	
493.500	13.264	
493.600	30.362	
493.700	24.535	
493.800	21.058	
493.900	33.290	
494.000	16.017	
494.100	32.498	
494.200	29.296	
494.300	30.122	
494.400	34.094	
494.500	22.354	
494.600	19.293	
494.700	44.939	
494.800	36.147	
494.900	40.719	
495.000	22.310	
495.100	19.175	
495.200	50.432	
495.300	19.046	
495.400	41.405	
495.500	35.110	
495.600	19.060	
495.700	38.375	
495.800	26.692	
495.900	29.109	
496.000	38.036	
496.100	39.174	
496.200	47.735	
496.300	23.861	
496.400	31.041	
496.500	42.803	
496.600	31.152	
496.700	47.573	
496.800	38.179	
496.900	32.778	
497.000	12.969	
497.100	35.457	
497.200	48.416	
497.300	37.934	
497.400	42.390	
497.500	40.563	
497.600	34.325	
497.700	33.798	
497.800	41.245	
497.900	34.569	
498.000	38.275	
498.100	38.715	
498.200	29.779	
498.300	43.703	
498.400	40.623	
498.500	52.981	
498.600	34.503	
498.700	29.927	
498.800	48.991	
498.900	33.528	
499.000	38.919	
499.100	53.365	
499.200	39.830	
499.300	36.628	
499.400	47.634	
499.500	41.741	
499.600	35.317	
499.700	43.321	
499.800	37.411	
499.900	27.595	
500.000	21.314	
500.100	51.676	
500.200	44.669	
500.300	41.775	
500.400	60.259	
500.500	47.017	
500.600	43.460	
500.700	62.722	
500.800	70.528	
500.900	49.573	
501.000	15.848	
501.100	35.267	
501.200	49.207	
501.300	41.662	
501.400	47.682	
501.500	39.717	
501.600	37.525	
501.700	33.086	
501.800	37.254	
501.900	55.720	
502.000	32.902	
502.100	44.440	
502.200	35.112	
502.300	54.762	
502.400	41.859	
502.500	48.585	
502.600	51.942	
502.700	37.020	
502.800	13.846	
502.900	43.795	
503.000	33.734	
503.100	47.742	
503.200	47.254	
503.300	45.363	
503.400	43.738	
503.500	30.039	
503.600	43.477	
503.700	43.584	
503.800	45.715	
503.900	38.220	
504.000	25.041	
504.100	60.971	
504.200	26.719	
504.300	48.848	
504.400	27.161	
504.500	50.040	
504.600	35.469	
504.700	58.240	
504.800	40.041	
504.900	41.292	
505.000	45.018	
505.100	43.889	
505.200	33.138	
505.300	39.182	
505.400	39.200	
505.500	52.694	
505.600	31.545	
505.700	29.479	
505.800	41.054	
505.900	53.111	
506.000	42.219	
506.100	54.250	
506.200	51.318	
506.300	43.414	
506.400	36.127	
506.500	40.019	
506.600	46.240	
506.700	32.536	
506.800	38.055	
506.900	26.513	
507.000	44.549	
507.100	63.709	
507.200	37.431	
507.300	26.732	
507.400	49.865	
507.500	52.574	
507.600	31.509	
507.700	49.413	
507.800	24.562	
507.900	47.979	
508.000	43.093	
508.100	36.749	
508.200	53.649	
508.300	51.405	
508.400	37.953	
508.500	9.866	
508.600	40.555	
508.700	46.317	
508.800	38.868	
508.900	39.149	
509.000	46.297	
509.100	47.888	
509.200	21.576	
509.300	28.159	
509.400	43.078	
509.500	49.725	
509.600	34.789	
509.700	37.853	
509.800	26.395	
509.900	33.904	
510.000	53.985	
510.100	55.961	
510.200	53.562	
510.300	26.844	
510.400	39.197	
510.500	22.462	
510.600	61.080	
510.700	61.154	
510.800	29.470	
510.900	52.271	
511.000	28.037	
511.100	39.610	
511.200	31.260	
511.300	46.382	
511.400	44.067	
511.500	42.095	
511.600	35.570	
511.700	46.635	
511.800	28.324	
511.900	39.913	
512.000	50.146	
512.100	43.914	
512.200	34.174	
512.300	44.325	
512.400	45.192	
512.500	38.936	
512.600	22.017	
512.700	42.011	
512.800	36.044	
512.900	35.574	
513.000	70.546	
513.100	51.073	
513.200	26.097	
513.300	35.996	
513.400	46.404	
513.500	45.192	
513.600	57.637	
513.700	46.230	
513.800	28.180	
513.900	24.359	
514.000	37.226	
514.100	45.265	
514.200	58.201	
514.300	43.207	
514.400	50.025	
514.500	19.086	
514.600	47.027	
514.700	56.964	
514.800	51.969	
514.900	39.969	
515.000	16.876	
515.100	46.072	
515.200	38.686	
515.300	53.919	
515.400	29.601	
515.500	40.143	
515.600	36.703	
515.700	20.541	
515.800	34.349	
515.900	44.994	
516.000	43.072	
516.100	44.257	
516.200	43.997	
516.300	24.005	
516.400	37.286	
516.500	62.485	
516.600	42.450	
516.700	39.023	
516.800	32.073	
516.900	31.470	
517.000	50.152	
517.100	19.782	
517.200	25.985	
517.300	27.520	
517.400	29.780	
517.500	46.705	
517.600	47.045	
517.700	56.358	
517.800	44.829	
517.900	21.119	
518.000	34.828	
518.100	31.927	
518.200	44.252	
518.300	41.900	
518.400	51.236	
518.500	35.764	
518.600	45.650	
518.700	33.626	
518.800	36.652	
518.900	44.229	
519.000	16.785	
519.100	54.432	
519.200	28.440	
519.300	53.751	
519.400	30.630	
519.500	37.583	
519.600	36.463	
519.700	32.803	
519.800	39.770	
519.900	39.885	
520.000	43.631	
520.100	26.660	
520.200	39.786	
520.300	38.397	
520.400	30.863	
520.500	28.115	
520.600	50.639	
520.700	49.090	
520.800	38.325	
520.900	40.624	
521.000	40.861	
521.100	50.339	
521.200	30.185	
521.300	30.082	
521.400	13.339	
521.500	43.314	
521.600	30.649	
521.700	36.241	
521.800	37.665	
521.900	46.264	
522.000	50.781	
522.100	37.952	
522.200	39.395	
522.300	34.461	
522.400	35.198	
522.500	35.000	
522.600	38.408	
522.700	36.252	
522.800	41.908	
522.900	19.704	
523.000	37.482	
523.100	46.190	
523.200	41.499	
523.300	31.534	
523.400	18.032	
523.500	23.157	
523.600	44.976	
523.700	37.854	
523.800	19.907	
523.900	38.795	
524.000	22.092	
524.100	60.716	
524.200	18.117	
524.300	36.374	
524.400	27.731	
524.500	44.664	
524.600	48.590	
524.700	50.510	
524.800	50.660	
524.900	26.520	
525.000	36.398	
525.100	39.420	
525.200	38.439	
525.300	43.059	
525.400	32.874	
525.500	38.101	
525.600	41.978	
525.700	29.315	
525.800	41.609	
525.900	32.116	
526.000	24.440	
526.100	44.052	
526.200	42.745	
526.300	30.619	
526.400	47.846	
526.500	38.112	
526.600	37.380	
526.700	31.759	
526.800	34.758	
526.900	25.573	
527.000	48.015	
527.100	46.138	
527.200	39.922	
527.300	22.947	
527.400	56.078	
527.500	46.402	
527.600	29.185	
527.700	42.553	
527.800	33.164	
527.900	29.949	
528.000	40.481	
528.100	39.803	
528.200	37.836	
528.300	50.289	
528.400	18.910	
528.500	19.533	
528.600	12.427	
528.700	51.544	
528.800	46.516	
528.900	11.969	
529.000	22.424	
529.100	24.004	
529.200	43.527	
529.300	37.566	
529.400	46.508	
529.500	35.511	
529.600	30.731	
529.700	25.666	
529.800	52.031	
529.900	48.808	
530.000	19.557	
530.100	38.788	
530.200	50.778	
530.300	38.385	
530.400	45.083	
530.500	22.641	
530.600	43.356	
530.700	38.341	
530.800	28.582	
530.900	24.531	
531.000	50.277	
531.100	38.289	
531.200	44.540	
531.300	22.782	
531.400	33.221	
531.500	38.456	
531.600	48.150	
531.700	37.120	
531.800	41.550	
531.900	23.796	
532.000	35.769	
532.100	29.003	
532.200	50.668	
532.300	34.900	
532.400	25.439	
532.500	14.249	
532.600	46.299	
532.700	20.080	
532.800	43.314	
532.900	25.271	
533.000	36.607	
533.100	47.590	
533.200	46.112	
533.300	32.159	
533.400	45.336	
533.500	51.579	
533.600	37.882	
533.700	26.656	
533.800	24.071	
533.900	48.344	
534.000	52.291	
534.100	43.296	
534.200	42.187	
534.300	42.432	
534.400	25.724	
534.500	32.877	
534.600	38.118	
534.700	59.431	
534.800	21.057	
534.900	27.133	
535.000	42.806	
535.100	32.302	
535.200	35.331	
535.300	60.582	
535.400	32.618	
535.500	18.624	
535.600	27.396	
535.700	39.154	
535.800	35.140	
535.900	26.871	
536.000	29.691	
536.100	30.751	
536.200	16.022	
536.300	38.348	
536.400	46.285	
536.500	13.552	
536.600	35.060	
536.700	49.404	
536.800	30.534	
536.900	23.474	
537.000	49.056	
537.100	48.098	
537.200	29.836	
537.300	42.640	
537.400	54.421	
537.500	29.311	
537.600	37.314	
537.700	51.819	
537.800	35.389	
537.900	30.772	
538.000	53.448	
538.100	50.150	
538.200	27.425	
538.300	50.929	
538.400	29.486	
538.500	37.278	
538.600	26.070	
538.700	50.950	
538.800	40.754	
538.900	24.493	
539.000	43.188	
539.100	20.369	
539.200	38.910	
539.300	37.736	
539.400	42.499	
539.500	36.521	
539.600	24.600	
539.700	32.598	
539.800	45.214	
539.900	26.490	
540.000	37.928	
540.100	32.909	
540.200	19.433	
540.300	41.694	
540.400	36.460	
540.500	38.538	
540.600	32.187	
540.700	25.048	
540.800	29.589	
540.900	26.656	
541.000	51.604	
541.100	29.480	
541.200	17.531	
541.300	8.908	
541.400	34.153	
541.500	18.587	
541.600	28.045	
541.700	34.471	
541.800	10.924	
541.900	16.058	
542.000	13.710	
542.100	22.847	
542.200	22.673	
542.300	18.257	
542.400	10.424	
542.500	6.452	
542.600	10.886	
542.700	35.935	
542.800	23.884	
542.900	25.289	
543.000	12.999	
543.100	5.648	
543.200	-1.255	
543.300	17.609	
543.400	-0.573	
543.500	13.884	
543.600	20.420	
543.700	17.528	
543.800	16.527	
543.900	-10.159	
544.000	7.133	
544.100	-7.459	
544.200	10.344	
544.300	5.009	
544.400	8.622	
544.500	19.255	
544.600	3.942	
544.700	3.747	
544.800	0.627	
544.900	15.843	
545.000	-4.956	
545.100	5.072	
545.200	22.251	
545.300	-2.998	
545.400	7.863	
545.500	-7.545	
545.600	12.640	
545.700	17.212	
545.800	-4.542	
545.900	7.401	
546.000	-7.822	
546.100	-20.431	
546.200	7.914	
546.300	5.078	
546.400	-3.522	
546.500	5.778	
546.600	-1.548	
546.700	8.915	
546.800	-12.878	
546.900	10.165	
547.000	10.501	
547.100	-9.823	
547.200	-1.004	
547.300	-7.257	
547.400	2.892	
547.500	-13.719	
547.600	-19.682	
547.700	0.023	
547.800	5.296	
547.900	12.130	
548.000	-7.711	
548.100	15.599	
548.200	-17.703	
548.300	-9.814	
548.400	3.352	
548.500	-5.347	
548.600	-3.244	
548.700	14.282	
548.800	-10.980	
548.900	-3.896	
549.000	-19.727	
549.100	0.962	
549.200	-4.386	
549.300	-0.097	
549.400	-3.541	
549.500	-3.262	
549.600	-8.835	
549.700	-1.082	
549.800	5.516	
549.900	-8.284	
550.000	-3.700	
550.100	-3.331	
550.200	-26.156	
550.300	-2.985	
550.400	-7.358	
550.500	2.087	
550.600	1.149	
550.700	-7.732	
550.800	-4.560	
550.900	3.881	
551.000	-0.211	
551.100	-20.759	
551.200	-8.208	
551.300	-3.600	
551.400	-25.312	
551.500	-2.323	
551.600	3.979	
551.700	0.987	
551.800	6.247	
551.900	-20.840	
552.000	-8.318	
552.100	-4.796	
552.200	11.169	
552.300	-25.407	
552.400	-9.428	
552.500	-4.074	
552.600	-12.177	
552.700	23.417	
552.800	-19.861	
552.900	-19.511	
553.000	-6.083	
553.100	-21.665	
553.200	-5.237	
553.300	0.244	
553.400	-9.779	
553.500	-25.481	
553.600	-18.087	
553.700	-12.555	
553.800	-28.007	
553.900	-7.967	
554.000	8.672	
554.100	-24.438	
554.200	-11.673	
554.300	2.592	
554.400	-27.794	
554.500	-13.003	
554.600	-15.013	
554.700	-32.454	
554.800	-31.639	
554.900	-22.541	
555.000	12.897	
555.100	-19.026	
555.200	5.675	
555.300	-22.221	
555.400	-15.065	
555.500	-32.141	
555.600	-19.426	
555.700	-3.348	
555.800	-19.466	
555.900	-28.179	
556.000	-13.038	
556.100	-10.235	
556.200	-23.951	
556.300	-1.517	
556.400	-12.750	
556.500	-41.754	
556.600	-14.501	
556.700	-8.631	
556.800	4.252	
556.900	-9.440	
557.000	-16.158	
557.100	-15.780	
557.200	-7.244	
557.300	-1.764	
557.400	-21.491	
557.500	-8.264	
557.600	-10.029	
557.700	-17.846	
557.800	-11.980	
557.900	-3.496	
558.000	-8.620	
558.100	-22.636	
558.200	-16.695	
558.300	-36.867	
558.400	-14.031	
558.500	-18.157	
558.600	-17.338	
558.700	-15.327	
558.800	-16.700	
558.900	0.539	
559.000	-24.729	
559.100	-28.659	
559.200	-12.036	
559.300	-10.663	
559.400	-10.709	
559.500	-31.574	
559.600	-2.792	
559.700	-9.385	
559.800	-20.236	
559.900	-23.445	
560.000	-25.003	
560.100	-27.370	
560.200	-10.336	
560.300	-4.309	
560.400	-26.072	
560.500	-25.194	
560.600	-16.827	
560.700	-11.807	
560.800	-19.934	
560.900	-22.600	
561.000	-7.514	
561.100	-27.578	
561.200	-26.455	
561.300	-24.578	
561.400	-24.614	
561.500	-20.707	
561.600	-3.194	
561.700	-41.404	
561.800	-39.070	
561.900	-30.325	
562.000	-10.314	
562.100	-6.827	
562.200	-25.726	
562.300	-4.869	
562.400	-28.695	
562.500	-22.630	
562.600	-23.535	
562.700	-19.289	
562.800	-7.084	
562.900	-12.497	
563.000	-23.103	
563.100	-16.311	
563.200	-7.589	
563.300	-9.224	
563.400	-32.820	
563.500	-10.508	
563.600	-38.724	
563.700	-17.140	
563.800	-10.438	
563.900	-8.017	
564.000	-14.086	
564.100	-37.847	
564.200	-20.472	
564.300	-14.106	
564.400	-28.082	
564.500	-15.671	
564.600	-18.641	
564.700	-36.111	
564.800	-12.447	
564.900	-18.611	
565.000	-22.694	
565.100	-20.224	
565.200	-11.949	
565.300	-25.408	
565.400	-30.419	
565.500	-24.242	
565.600	-22.379	
565.700	-4.205	
565.800	-16.334	
565.900	-39.559	
566.000	-6.509	
566.100	-1.751	
566.200	-13.779	
566.300	-8.055	
566.400	-20.269	
566.500	-2.447	
566.600	-22.433	
566.700	-14.481	
566.800	6.203	
566.900	-21.532	
567.000	-28.738	
567.100	-23.294	
567.200	-27.933	
567.300	-4.962	
567.400	-13.649	
567.500	-19.475	
567.600	-21.320	
567.700	-28.994	
567.800	-5.991	
567.900	-11.610	
568.000	-11.486	
568.100	-17.301	
568.200	-41.732	
568.300	-24.165	
568.400	-22.749	
568.500	-28.519	
568.600	-13.004	
568.700	-19.633	
568.800	-27.244	
568.900	-23.066	
569.000	-16.428	
569.100	-30.092	
569.200	-19.561	
569.300	-25.269	
569.400	-18.641	
569.500	-12.505	
569.600	-18.413	
569.700	-19.156	
569.800	-22.824	
569.900	-30.165	
570.000	-22.210	
570.100	-25.353	
570.200	-17.791	
570.300	-18.115	
570.400	4.354	
570.500	-20.734	
570.600	-24.143	
570.700	-42.890	
570.800	13.132	
570.900	2.784	
571.000	-33.319	
571.100	-21.985	
571.200	-29.635	
571.300	-5.481	
571.400	-21.522	
571.500	4.993	
571.600	-10.597	
571.700	-36.021	
571.800	-9.779	
571.900	-14.554	
572.000	-23.861	
572.100	-19.485	
572.200	-20.228	
572.300	-15.348	
572.400	-12.572	
572.500	-19.165	
572.600	-18.200	
572.700	-15.962	
572.800	-26.847	
572.900	-25.445	
573.000	-9.832	
573.100	-10.005	
573.200	-9.590	
573.300	-14.687	
573.400	-37.218	
573.500	-10.955	
573.600	-32.714	
573.700	-12.115	
573.800	-14.916	
573.900	-27.193	
574.000	-21.463	
574.100	-19.390	
574.200	-37.157	
574.300	-17.879	
574.400	-12.055	
574.500	-33.912	
574.600	-22.887	
574.700	-26.875	
574.800	-16.972	
574.900	-10.511	
575.000	-13.806	
575.100	-18.495	
575.200	-31.112	
575.300	-21.315	
575.400	-10.673	
575.500	-16.493	
575.600	-1.072	
575.700	-23.500	
575.800	-23.434	
575.900	-31.609	
576.000	-22.893	
576.100	-24.370	
576.200	-13.805	
576.300	-31.669	
576.400	-12.111	
576.500	-13.540	
576.600	-11.637	
576.700	3.582	
576.800	-26.572	
576.900	-27.668	
577.000	-25.056	
577.100	-14.060	
577.200	-19.417	
577.300	-27.505	
577.400	-23.674	
577.500	-6.756	
577.600	-29.667	
577.700	-24.513	
577.800	-15.725	
577.900	-5.707	
578.000	-11.948	
578.100	-22.178	
578.200	-38.184	
578.300	-23.557	
578.400	-3.283	
578.500	-0.925	
578.600	-39.537	
578.700	-30.248	
578.800	-16.471	
578.900	-26.712	
579.000	-14.325	
579.100	-21.963	
579.200	-14.144	
579.300	-30.828	
579.400	-19.073	
579.500	-11.040	
579.600	-23.930	
579.700	-30.269	
579.800	-15.217	
579.900	-29.636	
580.000	-17.886	
580.100	-8.205	
580.200	-24.126	
580.300	-25.508	
580.400	-16.981	
580.500	-31.768	
580.600	-21.848	
580.700	-21.165	
580.800	-7.258	
580.900	-46.814	
581.000	-11.862	
581.100	-14.789	
581.200	-27.173	
581.300	-20.724	
581.400	-20.368	
581.500	-32.022	
581.600	-19.516	
581.700	-16.704	
581.800	-32.535	
581.900	-20.485	
582.000	-2.832	
582.100	-13.149	
582.200	-23.837	
582.300	-36.144	
582.400	-10.812	
582.500	-22.772	
582.600	-32.529	
582.700	-39.616	
582.800	-27.944	
582.900	-47.522	
583.000	-1.412	
583.100	1.702	
583.200	-25.807	
583.300	-8.394	
583.400	-33.272	
583.500	-23.119	
583.600	-3.958	
583.700	-14.296	
583.800	-24.995	
583.900	-21.128	
584.000	-23.017	
584.100	-20.072	
584.200	-16.708	
584.300	-27.446	
584.400	-2.138	
584.500	12.113	
584.600	-33.794	
584.700	-39.504	
584.800	-17.008	
584.900	-19.243	
585.000	-15.478	
585.100	-19.752	
585.200	-29.785	
585.300	-20.554	
585.400	-17.367	
585.500	-30.032	
585.600	-28.499	
585.700	-38.383	
585.800	-21.934	
585.900	-4.751	
586.000	-12.594	
586.100	-17.466	
586.200	-30.068	
586.300	-15.250	
586.400	-12.981	
586.500	-16.707	
586.600	-20.676	
586.700	-1.579	
586.800	-22.622	
586.900	-26.483	
587.000	-30.232	
587.100	-0.190	
587.200	-19.919	
587.300	-13.125	
587.400	-20.699	
587.500	-19.551	
587.600	-4.801	
587.700	-20.433	
587.800	-12.498	
587.900	-23.172	
588.000	-20.851	
588.100	-23.976	
588.200	-23.353	
588.300	-16.992	
588.400	-14.149	
588.500	-15.442	
588.600	-42.140	
588.700	-27.998	
588.800	-19.626	
588.900	-4.093	
589.000	-15.230	
589.100	-16.463	
589.200	-9.511	
589.300	-27.610	
589.400	-13.625	
589.500	-19.038	
589.600	-25.263	
589.700	-11.554	
589.800	-29.546	
589.900	-21.048	
590.000	3.863	
590.100	-15.136	
590.200	-7.424	
590.300	-17.252	
590.400	-32.959	
590.500	-17.153	
590.600	-17.483	
590.700	-10.015	
590.800	-13.467	
590.900	-40.168	
591.000	-9.288	
591.100	-1.164	
591.200	-31.373	
591.300	-33.374	
591.400	-1.852	
591.500	-25.540	
591.600	-25.568	
591.700	-16.394	
591.800	12.889	
591.900	-17.180	
592.000	-4.003	
592.100	-18.810	
592.200	-21.814	
592.300	-16.036	
592.400	-11.098	
592.500	-21.980	
592.600	-26.339	
592.700	-14.521	
592.800	-15.869	
592.900	-2.885	
593.000	-19.612	
593.100	-10.277	
593.200	-12.896	
593.300	-30.473	
593.400	-2.589	
593.500	-10.463	
593.600	-12.855	
593.700	-4.679	
593.800	-32.078	
593.900	-28.286	
594.000	-26.962	
594.100	-27.126	
594.200	-3.351	
594.300	-15.556	
594.400	-16.359	
594.500	-32.113	
594.600	-26.454	
594.700	-32.292	
594.800	-7.098	
594.900	-28.959	
595.000	-22.117	
595.100	-40.758	
595.200	-11.596	
595.300	-3.686	
595.400	-18.209	
595.500	-24.161	
595.600	-11.242	
595.700	-19.297	
595.800	-27.080	
595.900	-4.863	
596.000	-15.556	
596.100	-13.455	
596.200	-23.404	
596.300	-29.555	
596.400	-23.691	
596.500	-22.323	
596.600	-10.339	
596.700	-22.000	
596.800	-20.326	
596.900	-18.274	
597.000	-22.606	
597.100	-28.587	
597.200	-26.252	
597.300	-3.236	
597.400	-32.218	
597.500	-27.489	
597.600	-21.220	
597.700	-3.499	
597.800	-12.930	
597.900	-35.070	
598.000	-22.466	
598.100	-19.223	
598.200	7.058	
598.300	-8.783	
598.400	-2.149	
598.500	-45.135	
598.600	-22.661	
598.700	4.834	
598.800	-19.447	
598.900	-15.440	
599.000	-16.773	
599.100	-39.107	
599.200	-30.535	
599.300	-32.273	
599.400	-18.658	
599.500	-22.544	
599.600	-8.526	
599.700	-6.800	
599.800	-1.933	
599.900	-19.453	
600.000	-27.962	
600.100	-41.056	
600.200	-6.677	
600.300	-17.969	
600.400	-19.166	
600.500	-1.046	
600.600	-15.369	
600.700	-13.414	
600.800	-17.135	
600.900	-35.437	
601.000	-24.550	
601.100	2.052	
601.200	-22.015	
601.300	-20.307	
601.400	-37.466	
601.500	-18.247	
601.600	-20.144	
601.700	-15.555	
601.800	-20.715	
601.900	-16.656	
602.000	-24.832	
602.100	-28.243	
602.200	-17.670	
602.300	-25.361	
602.400	-20.831	
602.500	-32.564	
602.600	-10.742	
602.700	-20.161	
602.800	-24.646	
602.900	-24.318	
603.000	-6.586	
603.100	-20.440	
603.200	-13.344	
603.300	-20.966	
603.400	-35.579	
603.500	-12.227	
603.600	-2.380	
603.700	-16.970	
603.800	-29.652	
603.900	-23.423	
604.000	-4.428	
604.100	-24.934	
604.200	-15.550	
604.300	-30.468	
604.400	-26.652	
604.500	-11.666	
604.600	-17.553	
604.700	-9.203	
604.800	-3.781	
604.900	-16.396	
605.000	-16.537	
605.100	-11.099	
605.200	1.365	
605.300	-11.151	
605.400	-13.504	
605.500	-12.980	
605.600	-34.943	
605.700	-12.161	
605.800	-16.702	
605.900	-33.304	
606.000	-9.262	
606.100	-22.436	
606.200	-39.894	
606.300	-21.055	
606.400	0.474	
606.500	-8.587	
606.600	-12.358	
606.700	-10.058	
606.800	-11.323	
606.900	-16.420	
607.000	-11.204	
607.100	-20.804	
607.200	-2.138	
607.300	-31.558	
607.400	-20.243	
607.500	-12.962	
607.600	-33.114	
607.700	-19.993	
607.800	-20.819	
607.900	-40.058	
608.000	-4.886	
608.100	-19.940	
608.200	-11.363	
608.300	-21.992	
608.400	-6.573	
608.500	-34.696	
608.600	-28.588	
608.700	-17.124	
608.800	-2.852	
608.900	-4.297	
609.000	-21.487	
609.100	-15.821	
609.200	-23.369	
609.300	-21.651	
609.400	-11.427	
609.500	-11.546	
609.600	-23.548	
609.700	-22.512	
609.800	-21.967	
609.900	-5.155	
610.000	-12.990	
610.100	-7.594	
610.200	-16.347	
610.300	-23.096	
610.400	-12.572	
610.500	-8.489	
610.600	-5.805	
610.700	-32.705	
610.800	-13.141	
610.900	-28.412	
611.000	-20.909	
611.100	-18.442	
611.200	1.750	
611.300	-13.527	
611.400	-43.335	
611.500	-30.491	
611.600	-29.139	
611.700	-25.151	
611.800	-11.727	
611.900	-17.839	
612.000	-17.180	
612.100	-11.018	
612.200	-15.912	
612.300	-12.399	
612.400	-19.897	
612.500	-15.372	
612.600	-25.530	
612.700	-14.102	
612.800	-19.400	
612.900	-15.340	
613.000	-10.638	
613.100	-24.209	
613.200	-18.744	
613.300	-13.148	
613.400	-15.632	
613.500	-28.460	
613.600	-6.867	
613.700	-22.000	
613.800	-14.968	
613.900	-26.886	
614.000	-20.538	
614.100	-22.571	
614.200	-9.700	
614.300	-21.610	
614.400	-11.742	
614.500	-25.832	
614.600	-26.423	
614.700	-4.987	
614.800	-15.488	
614.900	-32.224	
615.000	-17.001	
615.100	-11.045	
615.200	-0.535	
615.300	-8.044	
615.400	-25.772	
615.500	-23.258	
615.600	-11.624	
615.700	-13.211	
615.800	10.710	
615.900	-22.388	
616.000	-25.908	
616.100	-20.243	
616.200	-15.539	
616.300	-14.211	
616.400	-8.973	
616.500	-9.437	
616.600	-5.270	
616.700	-24.484	
616.800	-51.615	
616.900	-6.076	
617.000	-5.199	
617.100	-5.210	
617.200	-26.106	
617.300	-11.307	
617.400	-23.030	
617.500	-10.926	
617.600	-15.241	
617.700	-17.473	
617.800	-17.461	
617.900	-10.743	
618.000	-9.223	
618.100	-14.418	
618.200	-8.898	
618.300	-7.139	
618.400	-20.478	
618.500	-16.544	
618.600	-3.796	
618.700	-18.484	
618.800	-11.216	
618.900	-17.149	
619.000	-17.652	
619.100	-18.823	
619.200	-8.692	
619.300	-28.995	
619.400	-13.912	
619.500	-18.420	
619.600	-24.227	
619.700	-22.973	
619.800	-30.713	
619.900	-0.617	
620.000	-1.972	
620.100	-11.364	
620.200	-9.960	
620.300	-13.525	
620.400	-45.136	
620.500	6.516	
620.600	-23.431	
620.700	-38.901	
620.800	-23.877	
620.900	-14.931	
621.000	-3.208	
621.100	-7.876	
621.200	-34.138	
621.300	-17.979	
621.400	-36.479	
621.500	-2.893	
621.600	-16.811	
621.700	-26.988	
621.800	-21.685	
621.900	-34.291	
622.000	-42.382	
622.100	2.544	
622.200	-9.347	
622.300	-8.080	
622.400	-28.204	
622.500	-30.667	
622.600	-24.643	
622.700	-0.735	
622.800	-33.564	
622.900	-28.368	
623.000	-7.225	
623.100	-32.936	
623.200	-20.022	
623.300	1.479	
623.400	-2.586	
623.500	1.733	
623.600	-27.926	
623.700	-31.917	
623.800	-16.667	
623.900	-13.775	
624.000	-14.183	
624.100	-17.934	
624.200	-13.936	
624.300	-20.486	
624.400	-18.443	
624.500	-17.824	
624.600	-10.504	
624.700	-0.104	
624.800	-20.996	
624.900	-37.562	
625.000	-45.043	
625.100	-2.892	
625.200	-18.743	
625.300	-6.561	
625.400	-23.031	
625.500	-30.689	
625.600	-13.132	
625.700	-7.446	
625.800	-23.275	
625.900	-17.957	
626.000	-38.334	
626.100	-30.903	
626.200	-32.047	
626.300	-8.307	
626.400	1.965	
626.500	-30.325	
626.600	-16.651	
626.700	-7.462	
626.800	-11.913	
626.900	-19.837	
627.000	-27.054	
627.100	-21.108	
627.200	-18.069	
627.300	-4.151	
627.400	-15.999	
627.500	-7.952	
627.600	-33.140	
627.700	-8.957	
627.800	-25.303	
627.900	-17.533	
628.000	-12.860	
628.100	-3.354	
628.200	-35.746	
628.300	-22.271	
628.400	-14.477	
628.500	-20.194	
628.600	-5.276	
628.700	-10.710	
628.800	-34.221	
628.900	-16.655	
629.000	-25.580	
629.100	-6.482	
629.200	-22.102	
629.300	-10.794	
629.400	-18.812	
629.500	-23.756	
629.600	-19.845	
629.700	-22.435	
629.800	0.581	
629.900	-18.023	
630.000	-29.684	
630.100	-28.661	
630.200	-18.654	
630.300	9.331	
630.400	-12.692	
630.500	-12.100	
630.600	-20.277	
630.700	-16.504	
630.800	-13.778	
630.900	-2.942	
631.000	12.489	
631.100	5.872	
631.200	-11.076	
631.300	-22.748	
631.400	5.790	
631.500	4.447	
631.600	21.993	
631.700	1.310	
631.800	-12.579	
631.900	7.354	
632.000	4.920	
632.100	-6.570	
632.200	10.998	
632.300	8.060	
632.400	-4.493	
632.500	-11.715	
632.600	-1.776	
632.700	11.133	
632.800	17.750	
632.900	14.567	
633.000	-13.614	
633.100	5.544	
633.200	16.729	
633.300	19.097	
633.400	8.864	
633.500	-3.745	
633.600	0.599	
633.700	1.087	
633.800	11.298	
633.900	-7.301	
634.000	8.971	
634.100	-10.602	
634.200	-2.833	
634.300	-2.417	
634.400	17.678	
634.500	19.859	
634.600	13.596	
634.700	11.373	
634.800	6.426	
634.900	9.944	
635.000	12.842	
635.100	13.494	
635.200	3.111	
635.300	15.065	
635.400	9.864	
635.500	7.541	
635.600	-11.457	
635.700	-0.199	
635.800	16.332	
635.900	6.555	
636.000	12.685	
636.100	1.685	
636.200	-3.259	
636.300	2.991	
636.400	11.931	
636.500	-8.211	
636.600	5.067	
636.700	0.140	
636.800	-13.435	
636.900	2.417	
637.000	3.622	
637.100	10.958	
637.200	0.438	
637.300	-0.089	
637.400	12.411	
637.500	-0.105	
637.600	21.207	
637.700	4.821	
637.800	25.388	
637.900	6.035	
638.000	11.789	
638.100	10.017	
638.200	9.407	
638.300	17.233	
638.400	17.870	
638.500	-1.983	
638.600	25.183	
638.700	24.984	
638.800	5.110	
638.900	2.718	
639.000	1.160	
639.100	21.740	
639.200	28.482	
639.300	-14.842	
639.400	15.887	
639.500	14.921	
639.600	7.848	
639.700	20.670	
639.800	18.930	
639.900	16.848	
640.000	8.475	
640.100	17.043	
640.200	18.158	
640.300	25.500	
640.400	23.452	
640.500	13.408	
640.600	4.828	
640.700	13.930	
640.800	15.488	
640.900	15.952	
641.000	7.848	
641.100	22.203	
641.200	28.150	
641.300	11.353	
641.400	34.198	
641.500	21.029	
641.600	14.253	
641.700	25.419	
641.800	18.120	
641.900	18.207	
642.000	18.358	
642.100	36.302	
642.200	39.782	
642.300	8.914	
642.400	19.959	
642.500	13.670	
642.600	15.432	
642.700	19.262	
642.800	16.709	
642.900	13.183	
643.000	30.173	
643.100	24.038	
643.200	31.217	
643.300	33.433	
643.400	28.829	
643.500	25.521	
643.600	30.987	
643.700	33.016	
643.800	31.881	
643.900	25.238	
644.000	37.680	
644.100	28.580	
644.200	20.708	
644.300	30.396	
644.400	41.126	
644.500	29.096	
644.600	32.420	
644.700	27.264	
644.800	27.015	
644.900	45.038	
645.000	42.857	
645.100	26.730	
645.200	30.378	
645.300	18.105	
645.400	31.115	
645.500	38.495	
645.600	41.087	
645.700	32.913	
645.800	35.101	
645.900	35.463	
646.000	24.706	
646.100	41.206	
646.200	43.574	
646.300	32.726	
646.400	38.246	
646.500	46.703	
646.600	21.803	
646.700	37.207	
646.800	22.117	
646.900	58.238	
647.000	39.150	
647.100	28.385	
647.200	38.165	
647.300	40.119	
647.400	38.903	
647.500	46.102	
647.600	38.918	
647.700	16.704	
647.800	42.002	
647.900	52.050	
648.000	52.995	
648.100	33.684	
648.200	39.644	
648.300	38.419	
648.400	52.410	
648.500	33.885	
648.600	35.223	
648.700	36.125	
648.800	30.849	
648.900	25.504	
649.000	56.260	
649.100	58.008	
649.200	31.597	
649.300	38.951	
649.400	41.517	
649.500	14.667	
649.600	44.506	
649.700	47.580	
649.800	51.771	
649.900	37.183	
650.000	42.812	
650.100	55.344	
650.200	51.064	
650.300	47.376	
650.400	28.072	
650.500	30.935	
650.600	41.639	
650.700	47.060	
650.800	47.124	
650.900	25.508	
651.000	41.031	
651.100	29.843	
651.200	41.468	
651.300	35.111	
651.400	39.289	
651.500	59.527	
651.600	46.624	
651.700	27.037	
651.800	40.796	
651.900	35.747	
652.000	30.002	
652.100	41.310	
652.200	41.024	
652.300	26.512	
652.400	60.145	
652.500	46.185	
652.600	39.899	
652.700	49.707	
652.800	34.067	
652.900	36.654	
653.000	30.258	
653.100	67.688	
653.200	34.586	
653.300	43.096	
653.400	22.605	
653.500	31.622	
653.600	42.705	
653.700	44.640	
653.800	67.536	
653.900	41.766	
654.000	43.810	
654.100	42.057	
654.200	37.842	
654.300	53.350	
654.400	35.992	
654.500	41.706	
654.600	49.345	
654.700	37.573	
654.800	31.346	
654.900	35.917	
655.000	48.489	
655.100	36.850	
655.200	35.812	
655.300	59.401	
655.400	37.842	
655.500	48.839	
655.600	40.094	
655.700	32.286	
655.800	42.892	
655.900	39.297	
656.000	43.123	
656.100	37.892	
656.200	50.325	
656.300	23.396	
656.400	37.885	
656.500	29.503	
656.600	28.403	
656.700	56.207	
656.800	50.998	
656.900	35.180	
657.000	39.807	
657.100	46.357	
657.200	49.516	
657.300	39.987	
657.400	42.607	
657.500	38.751	
657.600	46.831	
657.700	40.581	
657.800	46.450	
657.900	49.005	
658.000	53.392	
658.100	31.009	
658.200	43.171	
658.300	35.729	
658.400	51.098	
658.500	41.895	
658.600	26.699	
658.700	33.219	
658.800	35.603	
658.900	39.399	
659.000	42.210	
659.100	48.235	
659.200	39.937	
659.300	23.992	
659.400	25.559	
659.500	43.397	
659.600	71.631	
659.700	44.954	
659.800	44.744	
659.900	39.544	
660.000	31.150	
660.100	34.153	
660.200	50.928	
660.300	44.872	
660.400	35.963	
660.500	33.839	
660.600	45.246	
660.700	61.670	
660.800	49.657	
660.900	46.330	
661.000	37.557	
661.100	24.260	
661.200	39.483	
661.300	48.787	
661.400	56.136	
661.500	33.582	
661.600	31.326	
661.700	51.066	
661.800	41.971	
661.900	33.971	
662.000	42.097	
662.100	20.943	
662.200	42.445	
662.300	51.827	
662.400	25.608	
662.500	44.846	
662.600	42.577	
662.700	35.291	
662.800	47.830	
662.900	39.490	
663.000	45.227	
663.100	46.463	
663.200	43.413	
663.300	28.814	
663.400	25.212	
663.500	51.602	
663.600	37.310	
663.700	36.303	
663.800	47.577	
663.900	35.058	
664.000	44.406	
664.100	59.437	
664.200	58.892	
664.300	48.931	
664.400	46.277	
664.500	33.792	
664.600	40.788	
664.700	54.835	
664.800	51.886	
664.900	47.034	
665.000	38.211	
665.100	39.252	
665.200	38.237	
665.300	37.396	
665.400	58.836	
665.500	43.264	
665.600	44.776	
665.700	15.598	
665.800	46.774	
665.900	36.669	
666.000	78.413	
666.100	37.148	
666.200	30.351	
666.300	42.010	
666.400	40.721	
666.500	37.822	
666.600	40.442	
666.700	42.644	
666.800	39.370	
666.900	17.176	
667.000	31.077	
667.100	38.897	
667.200	48.676	
667.300	50.899	
667.400	28.226	
667.500	37.694	
667.600	47.592	
667.700	44.384	
667.800	22.694	
667.900	30.960	
668.000	60.829	
668.100	30.849	
668.200	43.489	
668.300	47.875	
668.400	59.106	
668.500	32.911	
668.600	31.558	
668.700	32.095	
668.800	34.900	
668.900	35.328	
669.000	50.931	
669.100	35.925	
669.200	24.679	
669.300	47.494	
669.400	36.483	
669.500	29.564	
669.600	32.174	
669.700	33.383	
669.800	27.997	
669.900	42.867	
670.000	30.138	
670.100	46.512	
670.200	46.844	
670.300	35.230	
670.400	30.094	
670.500	39.390	
670.600	49.801	
670.700	49.416	
670.800	35.422	
670.900	32.947	
671.000	42.796	
671.100	31.420	
671.200	44.671	
671.300	36.799	
671.400	42.482	
671.500	35.869	
671.600	48.236	
671.700	36.721	
671.800	42.236	
671.900	42.594	
672.000	40.022	
672.100	35.732	
672.200	26.222	
672.300	36.518	
672.400	50.669	
672.500	50.176	
672.600	31.392	
672.700	31.766	
672.800	40.734	
672.900	30.477	
673.000	55.293	
673.100	49.439	
673.200	29.833	
673.300	19.035	
673.400	30.462	
673.500	41.719	
673.600	40.455	
673.700	51.318	
673.800	46.366	
673.900	31.174	
674.000	28.877	
674.100	40.891	
674.200	45.566	
674.300	38.454	
674.400	41.597	
674.500	40.345	
674.600	21.125	
674.700	32.957	
674.800	37.612	
674.900	45.627	
675.000	34.624	
675.100	25.717	
675.200	26.662	
675.300	41.503	
675.400	50.191	
675.500	53.009	
675.600	17.931	
675.700	24.947	
675.800	49.293	
675.900	57.457	
676.000	46.553	
676.100	23.104	
676.200	34.554	
676.300	36.674	
676.400	31.043	
676.500	38.488	
676.600	61.476	
676.700	38.495	
676.800	34.437	
676.900	32.947	
677.000	37.401	
677.100	36.288	
677.200	51.641	
677.300	35.243	
677.400	31.623	
677.500	27.709	
677.600	34.745	
677.700	25.757	
677.800	25.508	
677.900	58.308	
678.000	35.438	
678.100	36.896	
678.200	53.932	
678.300	34.257	
678.400	48.792	
678.500	21.866	
678.600	38.560	
678.700	26.255	
678.800	39.023	
678.900	35.762	
679.000	42.384	
679.100	25.256	
679.200	41.806	
679.300	56.973	
679.400	32.556	
679.500	33.537	
679.600	34.928	
679.700	45.416	
679.800	14.094	
679.900	27.232	
680.000	43.417	
680.100	48.429	
680.200	38.470	
680.300	36.270	
680.400	43.398	
680.500	50.711	
680.600	29.183	
680.700	22.785	
680.800	36.932	
680.900	40.030	
681.000	32.837	
681.100	29.412	
681.200	52.320	
681.300	39.857	
681.400	30.539	
681.500	26.223	
681.600	28.661	
681.700	38.918	
681.800	36.748	
681.900	45.127	
682.000	40.292	
682.100	20.534	
682.200	16.184	
682.300	50.708	
682.400	42.859	
682.500	37.681	
682.600	34.398	
682.700	27.074	
682.800	31.791	
682.900	42.255	
683.000	44.822	
683.100	32.015	
683.200	7.208	
683.300	33.082	
683.400	47.602	
683.500	51.412	
683.600	42.517	
683.700	38.899	
683.800	42.800	
683.900	21.427	
684.000	41.500	
684.100	54.442	
684.200	43.992	
684.300	46.094	
684.400	31.950	
684.500	10.100	
684.600	49.334	
684.700	32.683	
684.800	45.372	
684.900	42.321	
685.000	27.915	
685.100	32.330	
685.200	44.756	
685.300	48.926	
685.400	34.010	
685.500	21.250	
685.600	32.951	
685.700	47.591	
685.800	40.883	
685.900	16.921	
686.000	38.075	
686.100	49.873	
686.200	8.390	
686.300	33.837	
686.400	46.400	
686.500	38.522	
686.600	27.819	
686.700	25.630	
686.800	44.427	
686.900	36.538	
687.000	37.809	
687.100	39.173	
687.200	39.082	
687.300	16.761	
687.400	30.208	
687.500	33.550	
687.600	46.825	
687.700	45.765	
687.800	40.460	
687.900	21.151	
688.000	37.742	
688.100	44.234	
688.200	29.333	
688.300	53.178	
688.400	48.487	
688.500	29.738	
688.600	31.081	
688.700	40.609	
688.800	23.588	
688.900	27.835	
689.000	35.025	
689.100	12.283	
689.200	23.014	
689.300	48.972	
689.400	36.552	
689.500	29.169	
689.600	43.073	
689.700	32.423	
689.800	36.036	
689.900	37.615	
690.000	29.932	
690.100	38.822	
690.200	35.047	
690.300	31.596	
690.400	30.011	
690.500	47.331	
690.600	43.687	
690.700	30.443	
690.800	18.534	
690.900	26.363	
691.000	37.832	
691.100	20.023	
691.200	29.690	
691.300	-2.814	
691.400	3.142	
691.500	27.171	
691.600	27.783	
691.700	28.115	
691.800	33.637	
691.900	27.906	
692.000	25.299	
692.100	18.683	
692.200	15.639	
692.300	-2.040	
692.400	8.496	
692.500	12.643	
692.600	22.584	
692.700	5.963	
692.800	2.873	
692.900	16.460	
693.000	24.908	
693.100	-7.141	
693.200	7.968	
693.300	19.988	
693.400	8.287	
693.500	12.666	
693.600	-10.169	
693.700	1.039	
693.800	28.624	
693.900	0.562	
694.000	4.269	
694.100	26.030	
694.200	-9.881	
694.300	3.442	
694.400	-1.714	
694.500	15.757	
694.600	9.983	
694.700	5.135	
694.800	-5.644	
694.900	-8.189	
695.000	2.387	
695.100	22.414	
695.200	11.035	
695.300	13.193	
695.400	-10.326	
695.500	-19.512	
695.600	11.455	
695.700	-2.014	
695.800	14.869	
695.900	2.061	
696.000	-8.250	
696.100	2.719	
696.200	15.398	
696.300	17.893	
696.400	20.499	
696.500	1.866	
696.600	-1.671	
696.700	-15.801	
696.800	6.781	
696.900	14.358	
697.000	11.856	
697.100	-3.043	
697.200	-27.042	
697.300	-8.114	
697.400	4.103	
697.500	-0.171	
697.600	-0.406	
697.700	5.641	
697.800	-11.451	
697.900	-17.466	
698.000	6.930	
698.100	20.637	
698.200	-8.606	
698.300	-14.133	
698.400	-9.185	
698.500	3.258	
698.600	13.249	
698.700	-1.099	
698.800	-16.196	
698.900	-20.948	
699.000	-1.158	
699.100	-7.214	
699.200	4.391	
699.300	2.058	
699.400	-8.376	
699.500	5.832	
699.600	-11.012	
699.700	-22.708	
699.800	1.622	
699.900	-3.481	
700.000	-11.460	
700.100	7.733	
700.200	-21.296	
700.300	-33.833	
700.400	-0.451	
700.500	0.010	
700.600	-0.177	
700.700	8.474	
700.800	-4.623	
700.900	-28.544	
701.000	14.349	
701.100	-5.977	
701.200	-12.057	
701.300	-21.560	
701.400	-10.234	
701.500	-5.043	
701.600	-3.338	
701.700	-7.018	
701.800	-5.434	
701.900	-7.544	
702.000	-27.816	
702.100	-20.527	
702.200	-1.787	
702.300	-12.277	
702.400	-2.921	
702.500	-6.185	
702.600	-32.635	
702.700	-10.929	
702.800	-11.980	
702.900	-17.303	
703.000	-2.339	
703.100	-18.300	
703.200	-12.909	
703.300	-15.932	
703.400	-4.109	
703.500	-14.448	
703.600	-24.762	
703.700	-11.961	
703.800	-18.668	
703.900	-21.390	
704.000	-9.903	
704.100	-0.461	
704.200	-29.916	
704.300	-14.771	
704.400	-11.946	
704.500	6.033	
704.600	-11.279	
704.700	-20.567	
704.800	0.858	
704.900	-34.331	
705.000	-21.498	
705.100	-5.030	
705.200	-22.179	
705.300	-12.363	
705.400	-31.259	
705.500	-14.893	
705.600	-32.104	
705.700	-23.357	
705.800	-6.554	
705.900	-17.693	
706.000	-14.450	
706.100	-47.365	
706.200	1.723	
706.300	3.692	
706.400	-1.280	
706.500	-18.687	
706.600	-14.480	
706.700	-11.527	
706.800	-31.274	
706.900	-7.462	
707.000	-18.448	
707.100	-33.546	
707.200	-26.521	
707.300	-11.837	
707.400	-9.142	
707.500	-16.258	
707.600	-13.169	
707.700	-16.282	
707.800	-38.550	
707.900	-42.196	
708.000	-12.274	
708.100	-3.327	
708.200	-10.958	
708.300	-37.340	
708.400	-23.017	
708.500	-7.560	
708.600	-24.081	
708.700	-14.322	
708.800	-33.478	
708.900	-30.350	
709.000	-24.722	
709.100	-1.191	
709.200	-4.253	
709.300	-21.332	
709.400	-13.912	
709.500	-40.461	
709.600	-40.327	
709.700	-24.588	
709.800	-15.429	
709.900	-6.596	
710.000	-20.704	
710.100	-25.426	
710.200	-22.555	
710.300	-9.543	
710.400	3.191	
710.500	-15.949	
710.600	-13.424	
710.700	-38.440	
710.800	-36.867	
710.900	-11.855	
711.000	-24.371	
711.100	-13.544	
711.200	-28.479	
711.300	-13.833	
711.400	-21.142	
711.500	-35.081	
711.600	-7.315	
711.700	-32.127	
711.800	-32.928	
711.900	-13.419	
712.000	-18.428	
712.100	-35.039	
712.200	-9.532	
712.300	-33.320	
712.400	-16.878	
712.500	-36.448	
712.600	-16.405	
712.700	3.900	
712.800	-28.152	
712.900	-11.675	
713.000	-31.395	
713.100	-33.497	
713.200	-4.413	
713.300	-11.699	
713.400	-16.359	
713.500	-6.617	
713.600	-36.988	
713.700	-28.647	
713.800	-9.626	
713.900	-7.573	
714.000	-36.003	
714.100	-22.594	
714.200	-15.882	
714.300	-11.010	
714.400	-11.610	
714.500	-21.616	
714.600	-11.156	
714.700	-11.905	
714.800	-39.891	
714.900	-26.164	
715.000	-7.922	
715.100	-4.381	
715.200	-28.520	
715.300	-27.853	
715.400	-19.328	
715.500	-26.781	
715.600	-12.490	
715.700	-15.059	
715.800	-11.503	
715.900	-38.692	
716.000	-30.656	
716.100	-38.344	
716.200	-18.981	
716.300	-22.955	
716.400	-13.465	
716.500	-19.181	
716.600	-32.055	
716.700	-6.983	
716.800	-22.048	
716.900	-20.741	
717.000	-23.279	
717.100	-28.011	
717.200	-29.952	
717.300	-15.033	
717.400	-10.435	
717.500	-6.322	
717.600	-31.170	
717.700	-19.327	
717.800	-24.529	
717.900	-12.995	
718.000	-15.159	
718.100	-20.436	
718.200	-16.064	
718.300	-29.280	
718.400	-21.673	
718.500	-16.913	
718.600	-6.723	
718.700	-21.336	
718.800	-22.316	
718.900	-22.912	
719.000	-12.398	
719.100	-17.623	
719.200	-16.708	
719.300	-27.628	
719.400	-39.105	
719.500	-17.247	
719.600	-21.460	
719.700	-10.151	
719.800	-22.696	
719.900	-25.760	
720.000	-25.868	
720.100	-22.682	
720.200	-19.868	
720.300	-17.669	
720.400	-17.719	
720.500	-23.567	
720.600	-36.311	
720.700	-38.844	
720.800	3.932	
720.900	-10.462	
721.000	-18.466	
721.100	-13.884	
721.200	-43.502	
721.300	-34.599	
721.400	-4.956	
721.500	-25.132	
721.600	-30.925	
721.700	-12.410	
721.800	-15.268	
721.900	-15.672	
722.000	-25.538	
722.100	-14.970	
722.200	-29.321	
722.300	-12.795	
722.400	-28.985	
722.500	-14.676	
722.600	-29.324	
722.700	-18.480	
722.800	-2.638	
722.900	-37.661	
723.000	-17.602	
723.100	-29.894	
723.200	-21.905	
723.300	-26.964	
723.400	-5.764	
723.500	-35.161	
723.600	-21.785	
723.700	-22.405	
723.800	-6.554	
723.900	-25.164	
724.000	-10.581	
724.100	-27.059	
724.200	-28.388	
724.300	-3.981	
724.400	-24.459	
724.500	-21.341	
724.600	-42.031	
724.700	-20.292	
724.800	-13.533	
724.900	-28.765	
725.000	-9.821	
725.100	-20.529	
725.200	-29.152	
725.300	-33.815	
725.400	-22.457	
725.500	-17.176	
725.600	-29.358	
725.700	-16.738	
725.800	-21.677	
725.900	-14.930	
726.000	-28.960	
726.100	-13.447	
726.200	-13.028	
726.300	-22.741	
726.400	-41.222	
726.500	-27.179	
726.600	-19.966	
726.700	-25.472	
726.800	0.848	
726.900	-16.874	
727.000	-12.569	
727.100	-38.584	
727.200	-26.510	
727.300	-8.212	
727.400	-8.121	
727.500	-25.423	
727.600	-27.982	
727.700	-22.610	
727.800	-23.288	
727.900	-21.830	
728.000	-24.189	
728.100	-15.377	
728.200	-28.866	
728.300	-53.591	
728.400	-6.468	
728.500	-19.875	
728.600	-17.926	
728.700	-34.163	
728.800	-24.502	
728.900	-14.126	
729.000	-0.183	
729.100	-10.422	
729.200	-16.412	
729.300	-34.094	
729.400	-19.684	
729.500	-20.941	
729.600	-24.364	
729.700	-18.691	
729.800	-17.014	
729.900	-12.748	
730.000	-17.508	
730.100	-22.746	
730.200	-31.356	
730.300	-6.597	
730.400	-1.455	
730.500	-17.106	
730.600	-36.291	
730.700	-26.415	
730.800	-24.064	
730.900	-25.942	
731.000	-20.787	
731.100	-16.385	
731.200	-27.998	
731.300	-30.018	
731.400	-25.827	
731.500	-11.714	
731.600	-20.039	
731.700	-30.244	
731.800	-28.207	
731.900	-25.022	
732.000	-0.852	
732.100	-26.232	
732.200	-10.492	
732.300	-38.201	
732.400	-22.766	
732.500	-27.106	
732.600	-9.356	
732.700	-6.086	
732.800	-17.754	
732.900	-27.365	
733.000	-22.481	
733.100	-7.841	
733.200	-27.584	
733.300	-21.433	
733.400	-24.194	
733.500	-19.333	
733.600	-37.386	
733.700	-21.234	
733.800	-12.103	
733.900	-24.544	
734.000	-15.102	
734.100	-19.452	
734.200	-8.629	
734.300	0.997	
734.400	-26.506	
734.500	-24.042	
734.600	-12.537	
734.700	-27.023	
734.800	-18.048	
734.900	-19.767	
735.000	-19.118	
735.100	-23.718	
735.200	-35.447	
735.300	-21.184	
735.400	-19.716	
735.500	-11.803	
735.600	-22.692	
735.700	-26.918	
735.800	-38.653	
735.900	-30.914	
736.000	-33.704	
736.100	-15.671	
736.200	-27.405	
736.300	-26.468	
736.400	-28.548	
736.500	-41.885	
736.600	5.138	
736.700	-1.464	
736.800	-24.661	
736.900	-44.558	
737.000	-9.829	
737.100	-21.229	
737.200	-28.446	
737.300	-5.799	
737.400	-27.212	
737.500	-23.301	
737.600	-28.097	
737.700	-27.430	
737.800	-29.748	
737.900	-15.135	
738.000	-40.257	
738.100	-23.116	
738.200	-33.857	
738.300	-16.947	
738.400	-32.659	
738.500	-21.597	
738.600	-17.568	
738.700	-9.077	
738.800	-21.338	
738.900	-18.466	
739.000	-30.512	
739.100	2.279	
739.200	-21.607	
739.300	-30.123	
739.400	-33.236	
739.500	-6.275	
739.600	-17.114	
739.700	-25.565	
739.800	-29.120	
739.900	-21.432	
740.000	-19.350	
740.100	-14.422	
740.200	-5.615	
740.300	-29.669	
740.400	-47.381	
740.500	-32.032	
740.600	-4.815	
740.700	-8.701	
740.800	-2.825	
740.900	-39.094	
741.000	-14.158	
741.100	-11.354	
741.200	-18.473	
741.300	-8.613	
741.400	-24.645	
741.500	-42.719	
741.600	-24.744	
741.700	-6.773	
741.800	-6.636	
741.900	-27.238	
742.000	-6.528	
742.100	-31.698	
742.200	-34.556	
742.300	-29.369	
742.400	4.250	
742.500	-6.138	
742.600	2.960	
742.700	-27.884	
742.800	-36.373	
742.900	-31.102	
743.000	-24.664	
743.100	0.032	
743.200	-10.076	
743.300	-23.336	
743.400	-31.203	
743.500	-11.307	
743.600	-22.828	
743.700	-16.186	
743.800	-10.805	
743.900	-38.022	
744.000	-20.488	
744.100	-15.684	
744.200	-20.587	
744.300	-19.915	
744.400	-23.024	
744.500	-8.982	
744.600	-29.957	
744.700	-26.293	
744.800	-5.973	
744.900	-17.933	
745.000	-23.334	
745.100	-43.662	
745.200	-14.163	
745.300	-18.268	
745.400	-23.648	
745.500	-10.175	
745.600	-23.834	
745.700	-39.364	
745.800	-12.175	
745.900	-18.790	
746.000	-31.335	
746.100	-11.994	
746.200	-23.361	
746.300	-21.057	
746.400	-33.810	
746.500	-2.029	
746.600	-12.929	
746.700	-24.104	
746.800	-27.027	
746.900	-27.149	
747.000	-25.227	
747.100	-20.290	
747.200	-15.522	
747.300	-19.816	
747.400	-17.827	
747.500	-19.572	
747.600	-22.334	
747.700	-18.932	
747.800	-23.616	
747.900	-29.593	
748.000	-16.943	
748.100	-25.986	
748.200	-14.206	
748.300	-16.010	
748.400	-14.969	
748.500	-12.849	
748.600	-24.549	
748.700	-23.429	
748.800	-32.433	
748.900	-14.152	
749.000	-8.606	
749.100	-15.191	
749.200	-11.170	
749.300	-38.028	
749.400	10.949	
749.500	-2.550	
749.600	-17.547	
749.700	-24.415	
749.800	-30.614	
749.900	-22.530	
750.000	-9.208	
750.100	-5.794	
750.200	-1.076	
750.300	-29.864	
750.400	-26.533	
750.500	-16.765	
750.600	-9.309	
750.700	-3.389	
750.800	-13.819	
750.900	-13.439	
751.000	-29.842	
751.100	-24.641	
751.200	-8.910	
751.300	-12.605	
751.400	-19.660	
751.500	-24.149	
751.600	-28.778	
751.700	-4.254	
751.800	-19.873	
751.900	-20.818	
752.000	-19.278	
752.100	-22.259	
752.200	-14.372	
752.300	-20.575	
752.400	-25.045	
752.500	-15.245	
752.600	-12.786	
752.700	-16.825	
752.800	-32.582	
752.900	-17.842	
753.000	5.036	
753.100	-32.372	
753.200	-15.448	
753.300	-11.161	
753.400	-29.359	
753.500	-17.971	
753.600	-15.606	
753.700	-0.565	
753.800	-49.584	
753.900	-25.565	
754.000	-29.321	
754.100	8.083	
754.200	-19.579	
754.300	-19.522	
754.400	-19.560	
754.500	-32.204	
754.600	-10.379	
754.700	-9.355	
754.800	-9.689	
754.900	-21.313	
755.000	-14.120	
755.100	-28.609	
755.200	-18.321	
755.300	-14.761	
755.400	-6.672	
755.500	-14.170	
755.600	-32.478	
755.700	-8.273	
755.800	-25.709	
755.900	-12.133	
756.000	-3.391	
756.100	-26.464	
756.200	-27.678	
756.300	-33.430	
756.400	-4.867	
756.500	-11.117	
756.600	-23.947	
756.700	-13.086	
756.800	-47.138	
756.900	-9.426	
757.000	-39.861	
757.100	-17.383	
757.200	-2.678	
757.300	-25.604	
757.400	-34.013	
757.500	-21.060	
757.600	-21.430	
757.700	-9.506	
757.800	-13.528	
757.900	-26.458	
758.000	-19.949	
758.100	-10.053	
758.200	-13.815	
758.300	-6.988	
758.400	-18.705	
758.500	-28.639	
758.600	-23.214	
758.700	-13.380	
758.800	-23.840	
758.900	-10.613	
759.000	-22.076	
759.100	-20.904	
759.200	-23.879	
759.300	-13.692	
759.400	-17.677	
759.500	-9.149	
759.600	-10.119	
759.700	-9.565	
759.800	-30.223	
759.900	-34.918	
760.000	10.735	
760.100	-8.349	
760.200	-7.407	
760.300	-25.178	
760.400	-14.900	
760.500	-16.336	
760.600	-6.563	
760.700	-30.533	
760.800	-31.578	
760.900	-33.197	
761.000	-17.325	
761.100	-6.184	
761.200	-20.958	
761.300	-20.442	
761.400	-16.116	
761.500	-23.897	
761.600	-13.755	
761.700	0.502	
761.800	-13.336	
761.900	-15.327	
762.000	-24.861	
762.100	-23.522	
762.200	-21.055	
762.300	-17.478	
762.400	-9.169	
762.500	-14.682	
762.600	-25.809	
762.700	-21.175	
762.800	-25.770	
762.900	-24.401	
763.000	3.578	
763.100	-15.023	
763.200	-29.623	
763.300	-10.404	
763.400	-15.521	
763.500	-17.333	
763.600	-14.820	
763.700	-10.709	
763.800	-12.061	
763.900	-26.869	
764.000	-10.832	
764.100	-14.766	
764.200	-8.276	
764.300	-18.568	
764.400	-20.689	
764.500	-30.649	
764.600	-21.899	
764.700	4.024	
764.800	-16.113	
764.900	-8.227	
765.000	-17.972	
765.100	-9.788	
765.200	-10.248	
765.300	-1.549	
765.400	-38.015	
765.500	-11.596	
765.600	-9.082	
765.700	-15.387	
765.800	-10.678	
765.900	-10.392	
766.000	-17.711	
766.100	-25.206	
766.200	-14.036	
766.300	-15.208	
766.400	-15.531	
766.500	-13.546	
766.600	-16.519	
766.700	-8.433	
766.800	-26.809	
766.900	-10.530	
767.000	-3.992	
767.100	-6.083	
767.200	-27.688	
767.300	-37.002	
767.400	-17.161	
767.500	-8.500	
767.600	5.111	
767.700	-12.036	
767.800	-7.741	
767.900	-34.586	
768.000	-17.885	
768.100	-24.907	
768.200	-2.097	
768.300	-34.887	
768.400	-42.618	
768.500	-12.844	
768.600	-10.402	
768.700	-33.717	
768.800	4.680	
768.900	-8.117	
769.000	-33.788	
769.100	-16.662	
769.200	-8.691	
769.300	5.155	
769.400	-13.553	
769.500	-24.163	
769.600	-40.487	
769.700	-7.951	
769.800	-24.974	
769.900	-12.352	
770.000	-14.492	
770.100	-0.701	
770.200	-24.471	
770.300	-17.742	
770.400	-15.359	
770.500	-5.824	
770.600	-13.927	
770.700	2.466	
770.800	-27.554	
770.900	-5.846	
771.000	-23.987	
771.100	-10.428	
771.200	-15.313	
771.300	-5.767	
771.400	-33.606	
771.500	-18.658	
771.600	-11.561	
771.700	-10.802	
771.800	-9.939	
771.900	-12.079	
772.000	2.409	
772.100	-2.057	
772.200	-24.694	
772.300	4.234	
772.400	-14.514	
772.500	-26.729	
772.600	-6.686	
772.700	-31.339	
772.800	-10.135	
772.900	-3.008	
773.000	-10.739	
773.100	-6.367	
773.200	-12.420	
773.300	-29.050	
773.400	-13.139	
773.500	-8.596	
773.600	-31.194	
773.700	4.260	
773.800	-8.842	
773.900	-13.125	
774.000	-10.103	
774.100	-7.137	
774.200	2.357	
774.300	-20.234	
774.400	-10.774	
774.500	-17.410	
774.600	-25.327	
774.700	3.870	
774.800	-25.240	
774.900	-23.428	
775.000	-25.294	
775.100	-8.901	
775.200	-15.543	
775.300	0.967	
775.400	-18.081	
775.500	-25.917	
775.600	-23.137	
775.700	-11.407	
775.800	4.280	
775.900	-12.312	
776.000	-21.473	
776.100	-9.229	
776.200	-5.511	
776.300	-0.689	
776.400	5.785	
776.500	-9.984	
776.600	-21.509	
776.700	-18.303	
776.800	-4.199	
776.900	-14.220	
777.000	-12.217	
777.100	-11.430	
777.200	-18.486	
777.300	-18.916	
777.400	-11.596	
777.500	-20.086	
777.600	-20.296	
777.700	-16.237	
777.800	2.115	
777.900	9.576	
778.000	-10.792	
778.100	-22.685	
778.200	-14.060	
778.300	-8.511	
778.400	-17.022	
778.500	-27.974	
778.600	-19.067	
778.700	-5.355	
778.800	-8.024	
778.900	-40.771	
779.000	-13.438	
779.100	-7.514	
779.200	-4.399	
779.300	-6.986	
779.400	-19.176	
779.500	-23.305	
779.600	-11.980	
779.700	-20.120	
779.800	-0.691	
779.900	-23.169	
780.000	-1.451	
780.100	-8.140	
780.200	-4.867	
780.300	-10.691	
780.400	1.697	
780.500	-0.345	
780.600	0.746	
780.700	-9.631	
780.800	-11.452	
780.900	-17.675	
781.000	3.109	
781.100	-9.030	
781.200	-12.335	
781.300	0.216	
781.400	0.034	
781.500	-11.196	
781.600	-10.020	
781.700	-11.613	
781.800	5.994	
781.900	3.323	
782.000	3.205	
782.100	-9.543	
782.200	10.133	
782.300	15.302	
782.400	3.887	
782.500	-1.791	
782.600	2.432	
782.700	17.426	
782.800	12.862	
782.900	3.735	
783.000	-12.876	
783.100	14.842	
783.200	15.614	
783.300	6.668	
783.400	19.251	
783.500	-13.733	
783.600	13.287	
783.700	10.400	
783.800	17.765	
783.900	11.316	
784.000	13.354	
784.100	-9.975	
784.200	15.450	
784.300	25.238	
784.400	8.900	
784.500	8.144	
784.600	23.504	
784.700	5.250	
784.800	-0.745	
784.900	0.834	
785.000	10.102	
785.100	-6.220	
785.200	-2.138	
785.300	-0.904	
785.400	7.487	
785.500	2.121	
785.600	13.994	
785.700	6.041	
785.800	6.762	
785.900	4.773	
786.000	-0.794	
786.100	17.810	
786.200	14.673	
786.300	3.151	
786.400	6.011	
786.500	27.673	
786.600	4.812	
786.700	0.446	
786.800	2.941	
786.900	6.040	
787.000	18.761	
787.100	-0.157	
787.200	1.919	
787.300	5.970	
787.400	23.896	
787.500	27.189	
787.600	24.208	
787.700	14.003	
787.800	4.707	
787.900	5.363	
788.000	15.455	
788.100	19.150	
788.200	20.839	
788.300	1.652	
788.400	16.246	
788.500	6.247	
788.600	14.599	
788.700	5.906	
788.800	15.698	
788.900	4.041	
789.000	26.601	
789.100	29.031	
789.200	13.431	
789.300	3.459	
789.400	24.222	
789.500	5.316	
789.600	11.206	
789.700	19.038	
789.800	28.841	
789.900	30.874	
790.000	-9.837	
790.100	23.360	
790.200	16.718	
790.300	20.664	
790.400	38.086	
790.500	28.056	
790.600	16.322	
790.700	1.217	
790.800	14.507	
790.900	-7.990	
791.000	29.246	
791.100	18.572	
791.200	9.495	
791.300	7.132	
791.400	20.520	
791.500	28.112	
791.600	20.962	
791.700	15.965	
791.800	7.989	
791.900	21.708	
792.000	35.113	
792.100	11.351	
792.200	22.517	
792.300	35.048	
792.400	12.907	
792.500	31.256	
792.600	19.428	
792.700	36.258	
792.800	36.420	
792.900	23.343	
793.000	37.145	
793.100	-5.937	
793.200	25.268	
793.300	41.811	
793.400	13.119	
793.500	13.827	
793.600	36.336	
793.700	33.364	
793.800	45.436	
793.900	36.389	
794.000	30.193	
794.100	32.832	
794.200	29.965	
794.300	26.375	
794.400	50.727	
794.500	44.032	
794.600	24.827	
794.700	39.349	
794.800	18.803	
794.900	33.304	
795.000	25.548	
795.100	35.672	
795.200	22.029	
795.300	39.491	
795.400	31.376	
795.500	24.712	
795.600	56.616	
795.700	41.594	
795.800	30.923	
795.900	31.148	
796.000	33.270	
796.100	35.743	
796.200	21.367	
796.300	32.182	
796.400	48.987	
796.500	47.821	
796.600	41.077	
796.700	31.788	
796.800	31.057	
796.900	26.751	
797.000	30.991	
797.100	25.749	
797.200	35.076	
797.300	27.115	
797.400	53.211	
797.500	39.489	
797.600	43.305	
797.700	41.650	
797.800	29.440	
797.900	30.880	
798.000	67.131	
798.100	41.842	
798.200	41.376	
798.300	37.072	
798.400	37.815	
798.500	55.302	
798.600	45.455	
798.700	36.599	
798.800	42.489	
798.900	45.370	
799.000	35.720	
799.100	33.135	
799.200	31.800	
799.300	33.445	
799.400	37.706	
799.500	22.104	
799.600	44.217	
799.700	46.191	
799.800	48.250	
799.900	28.073	
800.000	46.951	
