time /s	I /nA	
0.100	27.067	
0.200	4.548	
0.300	2.033	
0.400	6.807	
0.500	14.058	
0.600	-14.020	
0.700	-6.883	
0.800	0.574	
0.900	8.181	
1.000	-23.156	
1.100	4.340	
1.200	7.137	
1.300	5.949	
1.400	8.566	
1.500	-2.327	
1.600	-29.549	
1.700	20.577	
1.800	-5.721	
1.900	0.581	
2.000	-2.332	
2.100	-18.782	
2.200	-8.930	
2.300	15.233	
2.400	-0.012	
2.500	-19.052	
2.600	4.442	
2.700	22.807	
2.800	-1.592	
2.900	-6.239	
3.000	-25.991	
3.100	-4.650	
3.200	27.449	
3.300	-0.306	
3.400	9.590	
3.500	-5.925	
3.600	-6.604	
3.700	2.625	
3.800	-17.943	
3.900	7.755	
4.000	26.343	
4.100	9.598	
4.200	-16.806	
4.300	-7.985	
4.400	-2.111	
4.500	16.423	
4.600	-2.622	
4.700	10.534	
4.800	-13.338	
4.900	8.709	
5.000	-1.174	
5.100	-3.639	
5.200	-9.914	
5.300	11.161	
5.400	-10.243	
5.500	23.151	
5.600	5.313	
5.700	3.702	
5.800	-12.298	
5.900	-6.736	
6.000	-17.310	
6.100	-23.772	
6.200	1.961	
6.300	8.753	
6.400	1.292	
6.500	21.159	
6.600	8.033	
6.700	12.904	
6.800	-4.546	
6.900	-13.251	
7.000	-14.323	
7.100	-19.297	
7.200	0.142	
7.300	7.246	
7.400	14.144	
7.500	19.489	
7.600	-12.724	
7.700	-3.807	
7.800	-0.530	
7.900	-5.238	
8.000	1.989	
8.100	11.586	
8.200	-2.618	
8.300	0.308	
8.400	-0.690	
8.500	-0.674	
8.600	17.421	
8.700	6.094	
8.800	-8.621	
8.900	-4.180	
9.000	0.804	
9.100	-18.661	
9.200	4.632	
9.300	-9.566	
9.400	1.924	
9.500	12.573	
9.600	-2.229	
9.700	-2.531	
9.800	-8.238	
9.900	-10.935	
10.000	5.539	
10.100	-17.182	
10.200	1.904	
10.300	16.527	
10.400	-3.961	
10.500	-9.460	
10.600	-10.805	
10.700	-0.748	
10.800	18.152	
10.900	0.734	
11.000	0.432	
11.100	14.025	
11.200	-9.100	
11.300	19.602	
11.400	-6.253	
11.500	2.518	
11.600	9.013	
11.700	-11.640	
11.800	16.235	
11.900	-5.269	
12.000	1.047	
12.100	-2.774	
12.200	2.371	
12.300	-11.962	
12.400	-27.943	
12.500	4.743	
12.600	9.096	
12.700	3.408	
12.800	-20.909	
12.900	-4.133	
13.000	-5.466	
13.100	5.155	
13.200	4.188	
13.300	11.394	
13.400	-9.574	
13.500	-13.595	
13.600	-4.773	
13.700	20.476	
13.800	-3.886	
13.900	-1.030	
14.000	-2.959	
14.100	-18.723	
14.200	13.706	
14.300	8.160	
14.400	-17.251	
14.500	1.737	
14.600	-34.168	
14.700	-9.727	
14.800	0.857	
14.900	34.122	
15.000	14.661	
15.100	10.791	
15.200	-4.480	
15.300	-3.254	
15.400	-14.741	
15.500	12.282	
15.600	2.957	
15.700	20.484	
15.800	-8.043	
15.900	-14.049	
16.000	3.112	
16.100	-11.110	
16.200	5.440	
16.300	14.798	
16.400	-7.973	
16.500	4.710	
16.600	-5.013	
16.700	7.234	
16.800	10.294	
16.900	-12.713	
17.000	-7.741	
17.100	10.086	
17.200	3.985	
17.300	0.897	
17.400	3.667	
17.500	2.655	
17.600	-10.506	
17.700	-12.731	
17.800	-4.271	
17.900	-5.279	
18.000	12.995	
18.100	-8.953	
18.200	5.489	
18.300	2.577	
18.400	25.398	
18.500	-1.844	
18.600	9.791	
18.700	-19.707	
18.800	-1.758	
18.900	-2.163	
19.000	15.233	
19.100	2.599	
19.200	1.759	
19.300	-9.417	
19.400	7.919	
19.500	1.406	
19.600	0.238	
19.700	-22.327	
19.800	-4.957	
19.900	-28.311	
20.000	10.382	
20.100	20.549	
20.200	7.410	
20.300	6.820	
20.400	-12.109	
20.500	13.865	
20.600	-6.429	
20.700	11.872	
20.800	0.661	
20.900	11.307	
21.000	-8.447	
21.100	-17.693	
21.200	15.178	
21.300	-11.777	
21.400	-10.761	
21.500	-18.068	
21.600	-12.365	
21.700	3.428	
21.800	6.036	
21.900	1.998	
22.000	16.239	
22.100	-2.015	
22.200	-11.925	
22.300	-1.973	
22.400	-16.477	
22.500	20.666	
22.600	12.294	
22.700	-15.322	
22.800	-10.211	
22.900	6.317	
23.000	6.709	
23.100	-0.682	
23.200	-9.193	
23.300	-20.894	
23.400	6.480	
23.500	17.032	
23.600	20.026	
23.700	0.535	
23.800	9.495	
23.900	-0.014	
24.000	-26.246	
24.100	-11.070	
24.200	28.187	
24.300	5.751	
24.400	-8.597	
24.500	-1.749	
24.600	-2.895	
24.700	2.687	
24.800	-16.571	
24.900	11.221	
25.000	9.195	
25.100	-3.061	
25.200	-9.026	
25.300	-4.092	
25.400	5.545	
25.500	3.309	
25.600	5.218	
25.700	-1.162	
25.800	-10.357	
25.900	-8.960	
26.000	-0.448	
26.100	-8.250	
26.200	-2.030	
26.300	7.772	
26.400	-6.980	
26.500	-5.143	
26.600	-6.498	
26.700	3.990	
26.800	7.689	
26.900	-0.584	
27.000	-16.219	
27.100	-0.428	
27.200	-7.131	
27.300	-12.897	
27.400	11.544	
27.500	-9.759	
27.600	5.393	
27.700	-3.877	
27.800	-1.484	
27.900	2.011	
28.000	2.917	
28.100	-13.374	
28.200	-10.989	
28.300	15.441	
28.400	-1.004	
28.500	10.313	
28.600	-22.691	
28.700	-25.139	
28.800	7.501	
28.900	10.284	
29.000	6.450	
29.100	6.975	
29.200	-14.709	
29.300	14.121	
29.400	1.666	
29.500	10.626	
29.600	11.521	
29.700	-17.423	
29.800	4.048	
29.900	-8.079	
30.000	17.808	
30.100	-14.255	
30.200	13.632	
30.300	-2.523	
30.400	1.449	
30.500	6.509	
30.600	32.600	
30.700	15.481	
30.800	7.733	
30.900	9.814	
31.000	4.524	
31.100	14.333	
31.200	16.391	
31.300	23.155	
31.400	10.247	
31.500	10.691	
31.600	3.377	
31.700	19.440	
31.800	18.407	
31.900	30.879	
32.000	22.089	
32.100	2.951	
32.200	18.711	
32.300	23.350	
32.400	12.609	
32.500	22.700	
32.600	16.012	
32.700	23.824	
32.800	16.372	
32.900	33.344	
33.000	29.236	
33.100	13.937	
33.200	21.750	
33.300	31.097	
33.400	23.693	
33.500	22.738	
33.600	23.480	
33.700	33.330	
33.800	26.455	
33.900	25.241	
34.000	-6.881	
34.100	47.181	
34.200	22.841	
34.300	28.501	
34.400	8.872	
34.500	12.940	
34.600	35.558	
34.700	28.289	
34.800	35.136	
34.900	19.385	
35.000	8.251	
35.100	20.284	
35.200	40.333	
35.300	27.396	
35.400	43.076	
35.500	25.096	
35.600	10.715	
35.700	17.188	
35.800	21.507	
35.900	28.567	
36.000	29.475	
36.100	30.925	
36.200	11.237	
36.300	24.263	
36.400	26.439	
36.500	26.680	
36.600	26.666	
36.700	24.208	
36.800	41.606	
36.900	2.373	
37.000	18.609	
37.100	31.560	
37.200	67.749	
37.300	34.476	
37.400	27.549	
37.500	34.054	
37.600	33.145	
37.700	39.489	
37.800	33.464	
37.900	11.915	
38.000	48.995	
38.100	20.054	
38.200	43.247	
38.300	24.296	
38.400	35.192	
38.500	13.535	
38.600	27.260	
38.700	32.529	
38.800	22.788	
38.900	56.197	
39.000	19.671	
39.100	33.568	
39.200	28.177	
39.300	30.230	
39.400	36.130	
39.500	31.586	
39.600	42.188	
39.700	32.402	
39.800	36.169	
39.900	34.028	
40.000	39.988	
40.100	26.941	
40.200	32.632	
40.300	7.840	
40.400	10.653	
40.500	37.972	
40.600	42.908	
40.700	24.253	
40.800	36.774	
40.900	40.970	
41.000	32.147	
41.100	42.331	
41.200	41.935	
41.300	34.635	
41.400	20.989	
41.500	28.752	
41.600	22.885	
41.700	50.376	
41.800	30.617	
41.900	40.687	
42.000	28.716	
42.100	37.926	
42.200	44.296	
42.300	34.792	
42.400	37.065	
42.500	42.155	
42.600	25.457	
42.700	18.229	
42.800	40.881	
42.900	46.771	
43.000	34.570	
43.100	29.682	
43.200	47.776	
43.300	54.436	
43.400	40.670	
43.500	29.235	
43.600	34.854	
43.700	50.453	
43.800	42.031	
43.900	36.736	
44.000	33.574	
44.100	30.741	
44.200	45.721	
44.300	42.343	
44.400	30.831	
44.500	40.519	
44.600	50.169	
44.700	16.990	
44.800	32.138	
44.900	33.386	
45.000	30.677	
45.100	42.754	
45.200	43.305	
45.300	50.072	
45.400	41.067	
45.500	52.350	
45.600	46.117	
45.700	18.689	
45.800	52.887	
45.900	40.987	
46.000	57.948	
46.100	33.478	
46.200	44.115	
46.300	19.809	
46.400	54.975	
46.500	49.781	
46.600	53.426	
46.700	43.558	
46.800	5.032	
46.900	26.884	
47.000	38.137	
47.100	54.526	
47.200	57.665	
47.300	18.707	
47.400	39.834	
47.500	38.390	
47.600	68.016	
47.700	34.728	
47.800	38.296	
47.900	30.425	
48.000	46.372	
48.100	51.032	
48.200	46.962	
48.300	55.251	
48.400	41.591	
48.500	37.239	
48.600	43.934	
48.700	46.795	
48.800	51.748	
48.900	31.668	
49.000	53.405	
49.100	41.373	
49.200	31.099	
49.300	41.905	
49.400	71.114	
49.500	61.021	
49.600	40.234	
49.700	48.958	
49.800	50.727	
49.900	49.554	
50.000	42.289	
50.100	49.669	
50.200	43.767	
50.300	19.033	
50.400	64.855	
50.500	48.563	
50.600	42.125	
50.700	43.421	
50.800	26.203	
50.900	28.207	
51.000	47.728	
51.100	41.620	
51.200	67.014	
51.300	48.382	
51.400	19.851	
51.500	55.695	
51.600	55.488	
51.700	30.096	
51.800	68.936	
51.900	44.840	
52.000	33.800	
52.100	28.925	
52.200	53.971	
52.300	61.240	
52.400	37.281	
52.500	60.230	
52.600	40.461	
52.700	60.713	
52.800	43.759	
52.900	64.990	
53.000	55.716	
53.100	33.927	
53.200	35.497	
53.300	49.243	
53.400	51.739	
53.500	48.952	
53.600	49.165	
53.700	37.255	
53.800	49.515	
53.900	36.613	
54.000	13.756	
54.100	42.561	
54.200	42.012	
54.300	59.982	
54.400	65.917	
54.500	52.226	
54.600	47.407	
54.700	65.060	
54.800	47.829	
54.900	25.093	
55.000	48.837	
55.100	54.305	
55.200	55.688	
55.300	50.215	
55.400	46.417	
55.500	47.449	
55.600	51.559	
55.700	69.237	
55.800	44.725	
55.900	54.668	
56.000	57.042	
56.100	31.126	
56.200	56.574	
56.300	53.755	
56.400	63.331	
56.500	37.317	
56.600	52.361	
56.700	54.471	
56.800	53.177	
56.900	47.596	
57.000	55.664	
57.100	60.940	
57.200	43.356	
57.300	56.179	
57.400	50.834	
57.500	56.003	
57.600	23.207	
57.700	54.597	
57.800	45.678	
57.900	46.994	
58.000	58.110	
58.100	56.131	
58.200	55.193	
58.300	55.875	
58.400	50.808	
58.500	58.443	
58.600	51.483	
58.700	65.491	
58.800	52.431	
58.900	48.262	
59.000	55.283	
59.100	29.459	
59.200	49.815	
59.300	66.195	
59.400	43.456	
59.500	57.180	
59.600	41.496	
59.700	46.599	
59.800	51.106	
59.900	61.491	
60.000	64.420	
60.100	31.725	
60.200	44.709	
60.300	41.687	
60.400	56.264	
60.500	68.756	
60.600	47.082	
60.700	50.235	
60.800	48.465	
60.900	41.116	
61.000	65.276	
61.100	62.576	
61.200	49.485	
61.300	59.312	
61.400	51.120	
61.500	61.083	
61.600	59.341	
61.700	53.475	
61.800	60.639	
61.900	45.794	
62.000	58.677	
62.100	49.027	
62.200	52.631	
62.300	46.222	
62.400	50.572	
62.500	56.506	
62.600	48.553	
62.700	54.231	
62.800	57.626	
62.900	54.271	
63.000	50.786	
63.100	26.200	
63.200	60.598	
63.300	69.241	
63.400	65.143	
63.500	51.210	
63.600	59.420	
63.700	48.043	
63.800	54.713	
63.900	48.859	
64.000	75.360	
64.100	61.867	
64.200	31.406	
64.300	37.217	
64.400	53.601	
64.500	63.428	
64.600	63.593	
64.700	54.380	
64.800	41.461	
64.900	59.115	
65.000	55.150	
65.100	54.332	
65.200	63.101	
65.300	64.549	
65.400	48.112	
65.500	51.034	
65.600	54.477	
65.700	62.149	
65.800	56.759	
65.900	52.984	
66.000	61.950	
66.100	20.454	
66.200	55.386	
66.300	64.210	
66.400	62.314	
66.500	66.434	
66.600	55.638	
66.700	37.709	
66.800	72.659	
66.900	58.135	
67.000	54.090	
67.100	39.496	
67.200	51.721	
67.300	52.098	
67.400	45.948	
67.500	60.792	
67.600	65.173	
67.700	51.973	
67.800	64.073	
67.900	42.629	
68.000	81.081	
68.100	60.757	
68.200	57.034	
68.300	40.984	
68.400	56.896	
68.500	69.528	
68.600	42.491	
68.700	44.273	
68.800	65.226	
68.900	40.067	
69.000	51.708	
69.100	63.860	
69.200	55.409	
69.300	49.996	
69.400	57.966	
69.500	30.574	
69.600	50.150	
69.700	51.656	
69.800	60.471	
69.900	47.568	
70.000	43.166	
70.100	55.612	
70.200	46.582	
70.300	60.826	
70.400	67.752	
70.500	78.407	
70.600	66.730	
70.700	27.017	
70.800	56.725	
70.900	55.052	
71.000	55.104	
71.100	68.367	
71.200	29.689	
71.300	57.868	
71.400	64.565	
71.500	61.774	
71.600	52.034	
71.700	42.138	
71.800	40.241	
71.900	42.744	
72.000	55.353	
72.100	51.131	
72.200	63.096	
72.300	50.402	
72.400	33.517	
72.500	60.848	
72.600	55.400	
72.700	52.084	
72.800	63.498	
72.900	60.160	
73.000	47.753	
73.100	51.282	
73.200	65.436	
73.300	40.889	
73.400	63.154	
73.500	65.587	
73.600	66.296	
73.700	48.329	
73.800	55.870	
73.900	42.574	
74.000	65.318	
74.100	69.542	
74.200	44.412	
74.300	54.357	
74.400	65.073	
74.500	55.410	
74.600	68.861	
74.700	57.329	
74.800	20.964	
74.900	70.985	
75.000	60.360	
75.100	57.788	
75.200	60.062	
75.300	67.320	
75.400	59.067	
75.500	55.848	
75.600	54.742	
75.700	51.462	
75.800	55.005	
75.900	29.770	
76.000	50.964	
76.100	69.985	
76.200	60.751	
76.300	54.166	
76.400	76.426	
76.500	38.533	
76.600	55.128	
76.700	59.950	
76.800	62.069	
76.900	27.052	
77.000	61.927	
77.100	58.602	
77.200	46.127	
77.300	47.352	
77.400	56.991	
77.500	63.196	
77.600	62.562	
77.700	39.319	
77.800	58.559	
77.900	59.646	
78.000	65.836	
78.100	45.371	
78.200	52.335	
78.300	57.079	
78.400	67.202	
78.500	38.557	
78.600	62.871	
78.700	55.653	
78.800	63.457	
78.900	58.339	
79.000	51.312	
79.100	19.758	
79.200	82.786	
79.300	44.674	
79.400	57.247	
79.500	31.591	
79.600	74.534	
79.700	62.608	
79.800	47.677	
79.900	60.250	
80.000	59.139	
80.100	48.657	
80.200	37.753	
80.300	67.185	
80.400	66.370	
80.500	55.219	
80.600	32.494	
80.700	45.547	
80.800	39.543	
80.900	61.386	
81.000	68.910	
81.100	41.191	
81.200	40.480	
81.300	64.559	
81.400	37.186	
81.500	66.756	
81.600	75.604	
81.700	48.674	
81.800	38.225	
81.900	33.494	
82.000	38.504	
82.100	79.053	
82.200	62.372	
82.300	56.650	
82.400	50.806	
82.500	72.025	
82.600	63.864	
82.700	45.934	
82.800	59.490	
82.900	48.563	
83.000	53.407	
83.100	49.608	
83.200	42.008	
83.300	72.308	
83.400	53.588	
83.500	46.375	
83.600	38.079	
83.700	60.676	
83.800	76.524	
83.900	62.529	
84.000	66.085	
84.100	41.393	
84.200	44.513	
84.300	76.225	
84.400	61.181	
84.500	72.462	
84.600	45.415	
84.700	47.776	
84.800	53.699	
84.900	51.592	
85.000	63.510	
85.100	41.657	
85.200	51.486	
85.300	44.262	
85.400	44.890	
85.500	62.751	
85.600	55.384	
85.700	49.660	
85.800	48.069	
85.900	61.809	
86.000	55.053	
86.100	74.093	
86.200	58.685	
86.300	50.955	
86.400	52.515	
86.500	42.041	
86.600	59.419	
86.700	54.066	
86.800	68.186	
86.900	60.900	
87.000	53.434	
87.100	45.132	
87.200	61.563	
87.300	47.117	
87.400	60.373	
87.500	68.886	
87.600	35.374	
87.700	50.171	
87.800	45.433	
87.900	52.698	
88.000	58.023	
88.100	57.300	
88.200	61.627	
88.300	51.677	
88.400	48.643	
88.500	54.745	
88.600	59.265	
88.700	53.049	
88.800	47.438	
88.900	48.215	
89.000	36.433	
89.100	54.463	
89.200	63.971	
89.300	51.444	
89.400	65.538	
89.500	58.016	
89.600	58.639	
89.700	67.274	
89.800	59.741	
89.900	60.676	
90.000	54.070	
90.100	45.149	
90.200	40.994	
90.300	76.426	
90.400	61.780	
90.500	29.609	
90.600	38.891	
90.700	26.461	
90.800	40.985	
90.900	49.200	
91.000	46.435	
91.100	30.744	
91.200	20.711	
91.300	30.910	
91.400	34.539	
91.500	24.514	
91.600	27.749	
91.700	33.322	
91.800	16.473	
91.900	28.804	
92.000	28.332	
92.100	19.137	
92.200	9.288	
92.300	30.348	
92.400	8.155	
92.500	58.349	
92.600	29.225	
92.700	20.582	
92.800	15.075	
92.900	12.394	
93.000	12.512	
93.100	17.148	
93.200	42.283	
93.300	17.871	
93.400	21.616	
93.500	12.915	
93.600	20.553	
93.700	3.932	
93.800	29.414	
93.900	25.962	
94.000	14.156	
94.100	18.199	
94.200	-22.142	
94.300	11.335	
94.400	19.424	
94.500	5.651	
94.600	-0.254	
94.700	19.444	
94.800	13.673	
94.900	28.519	
95.000	3.748	
95.100	4.680	
95.200	3.345	
95.300	20.409	
95.400	8.304	
95.500	25.158	
95.600	17.430	
95.700	10.817	
95.800	15.488	
95.900	14.490	
96.000	4.421	
96.100	27.724	
96.200	-3.868	
96.300	13.592	
96.400	1.436	
96.500	16.403	
96.600	-9.627	
96.700	9.285	
96.800	6.919	
96.900	-3.767	
97.000	11.738	
97.100	17.194	
97.200	15.733	
97.300	14.698	
97.400	3.236	
97.500	17.921	
97.600	-0.079	
97.700	11.376	
97.800	9.314	
97.900	20.660	
98.000	8.181	
98.100	4.342	
98.200	6.764	
98.300	11.042	
98.400	4.216	
98.500	12.736	
98.600	12.703	
98.700	8.591	
98.800	-9.119	
98.900	0.925	
99.000	18.087	
99.100	24.175	
99.200	2.335	
99.300	-18.043	
99.400	-3.942	
99.500	21.114	
99.600	6.575	
99.700	28.957	
99.800	-5.932	
99.900	-3.908	
100.000	-2.797	
100.100	6.954	
100.200	14.969	
100.300	8.883	
100.400	14.220	
100.500	15.053	
100.600	-12.825	
100.700	16.956	
100.800	6.453	
100.900	-2.747	
101.000	-2.553	
101.100	-1.465	
101.200	-15.503	
101.300	1.433	
101.400	6.929	
101.500	-8.741	
101.600	1.149	
101.700	11.272	
101.800	-26.490	
101.900	-0.248	
102.000	8.967	
102.100	1.864	
102.200	-12.854	
102.300	14.397	
102.400	4.687	
102.500	-10.809	
102.600	9.307	
102.700	-1.194	
102.800	-7.292	
102.900	-5.977	
103.000	17.042	
103.100	7.501	
103.200	-17.744	
103.300	7.260	
103.400	1.200	
103.500	-14.841	
103.600	-8.799	
103.700	16.041	
103.800	8.560	
103.900	6.648	
104.000	4.940	
104.100	-3.318	
104.200	-2.694	
104.300	8.716	
104.400	-9.359	
104.500	7.808	
104.600	3.229	
104.700	5.344	
104.800	6.214	
104.900	1.719	
105.000	7.086	
105.100	-27.413	
105.200	-16.949	
105.300	4.913	
105.400	-6.072	
105.500	-1.107	
105.600	-18.967	
105.700	-0.021	
105.800	-5.029	
105.900	-20.673	
106.000	16.953	
106.100	24.430	
106.200	3.068	
106.300	-13.877	
106.400	1.216	
106.500	0.097	
106.600	6.758	
106.700	-11.546	
106.800	6.072	
106.900	-11.282	
107.000	-29.888	
107.100	5.823	
107.200	0.466	
107.300	-1.849	
107.400	-1.487	
107.500	-6.992	
107.600	-12.490	
107.700	-1.148	
107.800	1.978	
107.900	-19.337	
108.000	-2.293	
108.100	-13.054	
108.200	-9.431	
108.300	-25.841	
108.400	11.630	
108.500	-7.330	
108.600	-21.326	
108.700	-25.328	
108.800	8.662	
108.900	1.109	
109.000	5.810	
109.100	-15.870	
109.200	-24.397	
109.300	-25.265	
109.400	-19.758	
109.500	-10.599	
109.600	2.251	
109.700	-23.415	
109.800	-22.588	
109.900	2.138	
110.000	-10.967	
110.100	-3.215	
110.200	-20.869	
110.300	6.932	
110.400	-14.879	
110.500	-8.916	
110.600	-14.602	
110.700	-8.500	
110.800	-11.334	
110.900	-23.907	
111.000	-2.626	
111.100	-26.221	
111.200	-46.904	
111.300	11.796	
111.400	-1.960	
111.500	4.771	
111.600	-0.649	
111.700	-5.935	
111.800	-6.035	
111.900	-4.794	
112.000	-0.613	
112.100	12.361	
112.200	-44.179	
112.300	-10.504	
112.400	-10.647	
112.500	-8.179	
112.600	-32.954	
112.700	-12.959	
112.800	-8.058	
112.900	-36.066	
113.000	-6.932	
113.100	-7.663	
113.200	-18.331	
113.300	-31.828	
113.400	-6.248	
113.500	6.257	
113.600	-17.988	
113.700	-9.673	
113.800	-2.238	
113.900	-20.413	
114.000	-12.688	
114.100	-10.360	
114.200	-12.886	
114.300	-18.094	
114.400	-23.313	
114.500	-25.425	
114.600	5.581	
114.700	-7.496	
114.800	-2.049	
114.900	-19.181	
115.000	-19.606	
115.100	-12.118	
115.200	-7.008	
115.300	-17.755	
115.400	-9.048	
115.500	-11.138	
115.600	-14.122	
115.700	-39.241	
115.800	-8.093	
115.900	-20.551	
116.000	2.022	
116.100	-6.766	
116.200	-32.149	
116.300	-1.944	
116.400	-15.822	
116.500	-17.955	
116.600	-23.618	
116.700	-13.527	
116.800	-20.327	
116.900	-15.483	
117.000	-22.911	
117.100	5.722	
117.200	-11.017	
117.300	0.435	
117.400	-22.418	
117.500	-26.745	
117.600	-11.981	
117.700	-11.225	
117.800	-2.832	
117.900	-33.393	
118.000	-3.067	
118.100	-22.969	
118.200	-16.338	
118.300	-9.832	
118.400	-12.338	
118.500	-12.626	
118.600	-24.332	
118.700	-22.920	
118.800	-21.324	
118.900	-9.724	
119.000	-28.222	
119.100	-21.428	
119.200	-32.064	
119.300	-8.133	
119.400	1.174	
119.500	-5.221	
119.600	-24.303	
119.700	-16.146	
119.800	-37.862	
119.900	-18.361	
120.000	-26.910	
120.100	-5.038	
120.200	-14.764	
120.300	-28.052	
120.400	-19.076	
120.500	-15.200	
120.600	-24.878	
120.700	6.809	
120.800	-19.215	
120.900	-41.872	
121.000	-11.731	
121.100	-10.629	
121.200	-7.563	
121.300	-19.235	
121.400	-34.883	
121.500	-1.872	
121.600	-22.070	
121.700	-17.044	
121.800	-9.295	
121.900	-5.775	
122.000	-35.313	
122.100	-28.692	
122.200	-36.495	
122.300	-29.942	
122.400	1.410	
122.500	-6.557	
122.600	-25.983	
122.700	-28.270	
122.800	-24.814	
122.900	-22.839	
123.000	-2.316	
123.100	-4.618	
123.200	-24.094	
123.300	-28.164	
123.400	-17.989	
123.500	-10.325	
123.600	-19.821	
123.700	-14.249	
123.800	-20.522	
123.900	-13.883	
124.000	-5.550	
124.100	-41.149	
124.200	-35.285	
124.300	-6.058	
124.400	-22.401	
124.500	-18.014	
124.600	-26.740	
124.700	-4.574	
124.800	-19.412	
124.900	-8.457	
125.000	-24.971	
125.100	-25.075	
125.200	-19.464	
125.300	-18.886	
125.400	-4.381	
125.500	-17.288	
125.600	-17.306	
125.700	-28.198	
125.800	-21.959	
125.900	-26.582	
126.000	-1.526	
126.100	-31.957	
126.200	-13.583	
126.300	-25.352	
126.400	-19.700	
126.500	-9.138	
126.600	-20.673	
126.700	-9.309	
126.800	-32.984	
126.900	-8.718	
127.000	2.979	
127.100	-6.000	
127.200	-26.735	
127.300	-15.576	
127.400	-27.961	
127.500	-9.057	
127.600	-25.860	
127.700	-8.491	
127.800	-24.338	
127.900	-40.925	
128.000	-29.095	
128.100	-25.335	
128.200	1.129	
128.300	-13.968	
128.400	-25.640	
128.500	-20.839	
128.600	-31.855	
128.700	-5.816	
128.800	7.403	
128.900	-20.923	
129.000	-14.045	
129.100	-12.983	
129.200	-23.438	
129.300	-16.259	
129.400	-6.016	
129.500	-33.082	
129.600	-31.568	
129.700	-38.823	
129.800	-20.242	
129.900	8.720	
130.000	16.276	
130.100	-41.974	
130.200	-32.165	
130.300	-8.995	
130.400	-16.239	
130.500	-3.920	
130.600	-12.487	
130.700	-28.750	
130.800	-29.495	
130.900	-6.846	
131.000	-10.581	
131.100	-11.018	
131.200	-25.210	
131.300	-12.003	
131.400	-40.314	
131.500	-21.838	
131.600	3.817	
131.700	-21.168	
131.800	-14.793	
131.900	-1.655	
132.000	-10.634	
132.100	-22.816	
132.200	-20.479	
132.300	-20.266	
132.400	-13.093	
132.500	-11.504	
132.600	-13.550	
132.700	-38.511	
132.800	-17.109	
132.900	10.703	
133.000	-10.710	
133.100	-11.396	
133.200	-13.489	
133.300	-29.406	
133.400	-22.403	
133.500	-7.705	
133.600	6.189	
133.700	-22.567	
133.800	-11.964	
133.900	-17.255	
134.000	-6.913	
134.100	-6.287	
134.200	2.217	
134.300	-24.133	
134.400	-23.623	
134.500	-26.463	
134.600	-8.153	
134.700	-8.857	
134.800	-12.432	
134.900	-1.852	
135.000	-18.155	
135.100	-12.431	
135.200	-34.999	
135.300	-16.038	
135.400	-14.351	
135.500	-21.302	
135.600	-10.763	
135.700	-15.605	
135.800	3.766	
135.900	-24.523	
136.000	-32.902	
136.100	-15.177	
136.200	-11.697	
136.300	7.334	
136.400	-4.226	
136.500	-29.939	
136.600	-19.547	
136.700	-14.007	
136.800	-10.755	
136.900	-25.834	
137.000	15.139	
137.100	-28.689	
137.200	6.184	
137.300	-49.787	
137.400	8.679	
137.500	2.341	
137.600	-9.622	
137.700	-43.106	
137.800	-2.408	
137.900	-23.128	
138.000	-24.397	
138.100	-3.272	
138.200	-20.422	
138.300	-18.645	
138.400	5.005	
138.500	-16.702	
138.600	-41.704	
138.700	-10.254	
138.800	3.866	
138.900	1.843	
139.000	-32.802	
139.100	-22.669	
139.200	-22.536	
139.300	-7.651	
139.400	-7.603	
139.500	-27.096	
139.600	-6.478	
139.700	-19.633	
139.800	-1.623	
139.900	-15.658	
140.000	-29.877	
140.100	-9.216	
140.200	-22.614	
140.300	-4.295	
140.400	-18.985	
140.500	-0.050	
140.600	-8.318	
140.700	-22.004	
140.800	-37.494	
140.900	-8.049	
141.000	-10.434	
141.100	-12.145	
141.200	-21.801	
141.300	-37.057	
141.400	-36.165	
141.500	-16.622	
141.600	0.241	
141.700	3.921	
141.800	-19.862	
141.900	-16.511	
142.000	-29.893	
142.100	-6.315	
142.200	-9.796	
142.300	-21.201	
142.400	-14.396	
142.500	-31.564	
142.600	-11.238	
142.700	-8.802	
142.800	1.507	
142.900	-24.022	
143.000	-14.284	
143.100	-25.302	
143.200	-28.294	
143.300	-13.673	
143.400	-13.945	
143.500	-4.652	
143.600	-13.225	
143.700	-30.450	
143.800	-26.478	
143.900	-13.388	
144.000	-9.544	
144.100	-17.731	
144.200	-21.520	
144.300	-15.227	
144.400	-34.544	
144.500	-14.643	
144.600	-31.640	
144.700	-9.627	
144.800	-6.658	
144.900	-16.132	
145.000	-18.595	
145.100	-19.325	
145.200	-14.789	
145.300	-2.673	
145.400	-10.089	
145.500	-26.934	
145.600	-18.108	
145.700	-9.555	
145.800	-8.496	
145.900	-28.213	
146.000	-19.884	
146.100	-23.332	
146.200	-22.188	
146.300	-14.512	
146.400	-2.143	
146.500	-14.368	
146.600	-12.014	
146.700	-14.614	
146.800	-6.972	
146.900	-16.375	
147.000	-4.967	
147.100	-29.807	
147.200	-54.107	
147.300	2.065	
147.400	-15.598	
147.500	-23.579	
147.600	-6.520	
147.700	-34.336	
147.800	-17.585	
147.900	-13.428	
148.000	3.902	
148.100	-12.035	
148.200	-9.970	
148.300	-8.784	
148.400	-17.629	
148.500	-33.025	
148.600	-6.713	
148.700	-24.058	
148.800	-7.908	
148.900	-25.390	
149.000	-8.155	
149.100	-24.954	
149.200	-21.293	
149.300	-21.953	
149.400	2.492	
149.500	-14.043	
149.600	-9.583	
149.700	-14.006	
149.800	-5.762	
149.900	-11.283	
150.000	-35.582	
150.100	-8.243	
150.200	-4.983	
150.300	-8.327	
150.400	-13.046	
150.500	-13.702	
150.600	-12.052	
150.700	-29.248	
150.800	-5.025	
150.900	-22.717	
151.000	-28.326	
151.100	-16.191	
151.200	-25.616	
151.300	-9.837	
151.400	-7.943	
151.500	-18.279	
151.600	-15.325	
151.700	-14.383	
151.800	-20.650	
151.900	-25.335	
152.000	-24.507	
152.100	-13.732	
152.200	-12.265	
152.300	-6.865	
152.400	-1.732	
152.500	-31.757	
152.600	-13.815	
152.700	-20.252	
152.800	-12.014	
152.900	-27.989	
153.000	-19.386	
153.100	-3.066	
153.200	-11.085	
153.300	-18.524	
153.400	-5.854	
153.500	-9.208	
153.600	-16.578	
153.700	-12.339	
153.800	-20.579	
153.900	-19.115	
154.000	-6.783	
154.100	-29.394	
154.200	-21.097	
154.300	-10.724	
154.400	-19.735	
154.500	-1.577	
154.600	-6.088	
154.700	-7.876	
154.800	-23.698	
154.900	-18.122	
155.000	-3.217	
155.100	-36.223	
155.200	-18.154	
155.300	-19.576	
155.400	-15.514	
155.500	-11.907	
155.600	-15.336	
155.700	4.048	
155.800	-13.935	
155.900	-19.843	
156.000	-17.584	
156.100	-26.456	
156.200	-5.423	
156.300	-22.109	
156.400	-14.401	
156.500	-19.864	
156.600	-2.093	
156.700	-15.346	
156.800	-26.324	
156.900	-12.798	
157.000	-18.039	
157.100	-46.400	
157.200	-30.452	
157.300	16.968	
157.400	-5.267	
157.500	-28.860	
157.600	-9.581	
157.700	-14.112	
157.800	-27.046	
157.900	-21.535	
158.000	-16.018	
158.100	-9.371	
158.200	-35.205	
158.300	10.931	
158.400	-33.750	
158.500	-11.666	
158.600	-5.349	
158.700	-5.081	
158.800	-20.584	
158.900	-34.367	
159.000	-2.939	
159.100	-3.442	
159.200	-6.799	
159.300	-15.951	
159.400	-28.078	
159.500	-28.961	
159.600	-1.618	
159.700	3.626	
159.800	-14.131	
159.900	-17.301	
160.000	-9.269	
160.100	-30.826	
160.200	-15.603	
160.300	-22.697	
160.400	-9.173	
160.500	-0.582	
160.600	-29.476	
160.700	-19.655	
160.800	-29.793	
160.900	3.211	
161.000	-17.218	
161.100	-18.315	
161.200	-18.026	
161.300	-2.548	
161.400	-7.111	
161.500	-25.660	
161.600	-21.989	
161.700	-15.167	
161.800	-18.085	
161.900	-7.752	
162.000	-12.324	
162.100	-20.544	
162.200	-21.018	
162.300	-18.488	
162.400	-5.119	
162.500	-16.194	
162.600	-6.589	
162.700	7.605	
162.800	-19.549	
162.900	-15.574	
163.000	-24.383	
163.100	3.272	
163.200	-16.093	
163.300	-8.527	
163.400	-23.803	
163.500	-24.430	
163.600	-25.231	
163.700	-9.210	
163.800	12.364	
163.900	7.902	
164.000	-8.436	
164.100	-40.168	
164.200	-16.990	
164.300	-13.770	
164.400	-14.798	
164.500	-33.984	
164.600	-21.233	
164.700	-13.442	
164.800	-12.428	
164.900	-13.297	
165.000	17.163	
165.100	-17.462	
165.200	-18.509	
165.300	-29.295	
165.400	-42.221	
165.500	-21.798	
165.600	-9.911	
165.700	5.003	
165.800	-0.726	
165.900	1.330	
166.000	-14.699	
166.100	-3.540	
166.200	-10.410	
166.300	-6.892	
166.400	-39.412	
166.500	-20.160	
166.600	-33.087	
166.700	-0.089	
166.800	-13.871	
166.900	-10.492	
167.000	-20.416	
167.100	-1.912	
167.200	-8.931	
167.300	-12.434	
167.400	-31.217	
167.500	7.322	
167.600	-20.173	
167.700	-16.311	
167.800	-25.611	
167.900	-2.750	
168.000	-12.814	
168.100	1.384	
168.200	-27.165	
168.300	-8.726	
168.400	-25.394	
168.500	-10.320	
168.600	-5.968	
168.700	-15.182	
168.800	-18.166	
168.900	-22.316	
169.000	-9.864	
169.100	-6.109	
169.200	-20.100	
169.300	-7.221	
169.400	-3.303	
169.500	4.784	
169.600	-35.063	
169.700	19.832	
169.800	-18.262	
169.900	-21.793	
170.000	-23.231	
170.100	-19.104	
170.200	-30.309	
170.300	-11.795	
170.400	-19.335	
170.500	-4.699	
170.600	-35.502	
170.700	-14.877	
170.800	-20.251	
170.900	7.055	
171.000	7.295	
171.100	-6.484	
171.200	-45.101	
171.300	-10.127	
171.400	-0.872	
171.500	5.812	
171.600	-20.352	
171.700	-22.152	
171.800	-28.889	
171.900	-4.623	
172.000	-11.720	
172.100	-14.276	
172.200	-26.465	
172.300	-3.960	
172.400	-6.205	
172.500	-23.297	
172.600	-12.116	
172.700	-9.479	
172.800	1.964	
172.900	-6.814	
173.000	-12.781	
173.100	-11.055	
173.200	-18.369	
173.300	-22.912	
173.400	-35.761	
173.500	-12.819	
173.600	-27.209	
173.700	-6.313	
173.800	6.101	
173.900	-6.631	
174.000	-35.837	
174.100	-6.911	
174.200	-15.280	
174.300	-8.457	
174.400	-20.626	
174.500	-6.724	
174.600	-8.780	
174.700	-20.333	
174.800	-33.580	
174.900	-12.069	
175.000	1.387	
175.100	-9.960	
175.200	-20.207	
175.300	-24.433	
175.400	-28.254	
175.500	-27.038	
175.600	3.509	
175.700	-21.669	
175.800	-9.488	
175.900	-15.809	
176.000	0.157	
176.100	-8.072	
176.200	-19.560	
176.300	-13.854	
176.400	-23.221	
176.500	-13.271	
176.600	-0.961	
176.700	-7.963	
176.800	-30.190	
176.900	-17.081	
177.000	-26.335	
177.100	-25.648	
177.200	-4.249	
177.300	-7.454	
177.400	-13.694	
177.500	-8.900	
177.600	-13.222	
177.700	-7.780	
177.800	-11.412	
177.900	3.090	
178.000	-25.072	
178.100	-3.108	
178.200	-38.703	
178.300	4.732	
178.400	5.502	
178.500	-1.328	
178.600	-11.496	
178.700	-13.036	
178.800	-25.263	
178.900	-29.586	
179.000	-9.256	
179.100	-17.554	
179.200	-16.350	
179.300	-28.028	
179.400	5.211	
179.500	-14.872	
179.600	-13.472	
179.700	-15.490	
179.800	0.644	
179.900	-19.556	
180.000	-15.702	
180.100	6.690	
180.200	-26.050	
180.300	-28.939	
180.400	-7.800	
180.500	-20.449	
180.600	-1.848	
180.700	-11.103	
180.800	21.708	
180.900	11.008	
181.000	8.441	
181.100	18.705	
181.200	34.151	
181.300	23.788	
181.400	-3.099	
181.500	26.133	
181.600	30.182	
181.700	8.634	
181.800	36.900	
181.900	29.968	
182.000	25.945	
182.100	9.350	
182.200	26.848	
182.300	4.511	
182.400	37.093	
182.500	11.430	
182.600	29.904	
182.700	25.858	
182.800	18.985	
182.900	9.617	
183.000	26.180	
183.100	5.807	
183.200	10.363	
183.300	14.849	
183.400	21.173	
183.500	1.366	
183.600	15.664	
183.700	48.971	
183.800	5.892	
183.900	0.375	
184.000	5.978	
184.100	18.220	
184.200	15.201	
184.300	25.219	
184.400	31.592	
184.500	-0.450	
184.600	6.098	
184.700	3.133	
184.800	26.460	
184.900	21.798	
185.000	10.886	
185.100	25.482	
185.200	-11.819	
185.300	29.070	
185.400	19.183	
185.500	8.906	
185.600	37.865	
185.700	28.789	
185.800	0.880	
185.900	17.665	
186.000	14.797	
186.100	38.508	
186.200	20.069	
186.300	-2.978	
186.400	15.460	
186.500	37.157	
186.600	19.299	
186.700	42.128	
186.800	16.666	
186.900	24.426	
187.000	-10.760	
187.100	23.284	
187.200	2.950	
187.300	23.054	
187.400	18.555	
187.500	17.096	
187.600	36.081	
187.700	25.807	
187.800	27.339	
187.900	22.350	
188.000	15.671	
188.100	0.365	
188.200	6.245	
188.300	27.950	
188.400	32.465	
188.500	23.659	
188.600	16.908	
188.700	21.002	
188.800	26.141	
188.900	21.409	
189.000	18.546	
189.100	10.250	
189.200	24.184	
189.300	21.879	
189.400	9.501	
189.500	39.686	
189.600	33.478	
189.700	9.500	
189.800	14.922	
189.900	7.464	
190.000	24.073	
190.100	27.267	
190.200	35.915	
190.300	24.925	
190.400	8.169	
190.500	16.854	
190.600	36.073	
190.700	22.990	
190.800	34.668	
190.900	21.336	
191.000	19.798	
191.100	24.526	
191.200	62.927	
191.300	26.355	
191.400	28.957	
191.500	25.263	
191.600	35.259	
191.700	15.902	
191.800	29.721	
191.900	34.645	
192.000	28.909	
192.100	29.060	
192.200	27.620	
192.300	35.668	
192.400	34.660	
192.500	41.687	
192.600	13.206	
192.700	20.035	
192.800	23.376	
192.900	31.038	
193.000	35.546	
193.100	36.829	
193.200	41.153	
193.300	15.085	
193.400	35.591	
193.500	45.752	
193.600	35.058	
193.700	48.421	
193.800	29.554	
193.900	31.445	
194.000	21.173	
194.100	41.079	
194.200	49.529	
194.300	45.337	
194.400	36.005	
194.500	43.368	
194.600	45.050	
194.700	33.647	
194.800	40.743	
194.900	26.965	
195.000	47.521	
195.100	35.269	
195.200	44.688	
195.300	60.714	
195.400	39.252	
195.500	49.781	
195.600	22.231	
195.700	43.465	
195.800	46.019	
195.900	43.127	
196.000	64.209	
196.100	39.750	
196.200	53.441	
196.300	55.576	
196.400	58.953	
196.500	56.910	
196.600	57.439	
196.700	28.225	
196.800	61.576	
196.900	41.568	
197.000	64.513	
197.100	53.202	
197.200	61.908	
197.300	54.559	
197.400	59.842	
197.500	31.646	
197.600	50.374	
197.700	61.803	
197.800	64.361	
197.900	42.787	
198.000	42.864	
198.100	52.066	
198.200	55.597	
198.300	60.730	
198.400	63.267	
198.500	56.524	
198.600	41.395	
198.700	50.989	
198.800	46.031	
198.900	57.069	
199.000	69.877	
199.100	42.797	
199.200	37.620	
199.300	51.041	
199.400	66.808	
199.500	37.650	
199.600	57.035	
199.700	43.020	
199.800	45.525	
199.900	51.076	
200.000	42.143	
200.100	78.738	
200.200	60.230	
200.300	46.588	
200.400	72.395	
200.500	61.316	
200.600	49.571	
200.700	59.474	
200.800	62.157	
200.900	51.323	
201.000	46.074	
201.100	66.403	
201.200	82.658	
201.300	55.835	
201.400	56.344	
201.500	53.681	
201.600	49.586	
201.700	67.542	
201.800	47.299	
201.900	58.001	
202.000	46.540	
202.100	64.701	
202.200	61.287	
202.300	52.300	
202.400	82.598	
202.500	46.954	
202.600	59.544	
202.700	65.492	
202.800	49.335	
202.900	47.631	
203.000	71.453	
203.100	61.321	
203.200	60.747	
203.300	55.033	
203.400	62.285	
203.500	56.231	
203.600	67.022	
203.700	62.138	
203.800	50.452	
203.900	57.757	
204.000	72.639	
204.100	54.139	
204.200	69.381	
204.300	55.635	
204.400	69.875	
204.500	58.671	
204.600	46.397	
204.700	55.379	
204.800	53.536	
204.900	50.030	
205.000	68.646	
205.100	44.137	
205.200	47.381	
205.300	76.417	
205.400	71.470	
205.500	59.877	
205.600	52.599	
205.700	40.732	
205.800	58.178	
205.900	53.961	
206.000	76.816	
206.100	43.598	
206.200	40.872	
206.300	59.221	
206.400	65.473	
206.500	60.010	
206.600	59.182	
206.700	35.181	
206.800	66.380	
206.900	68.067	
207.000	55.299	
207.100	63.143	
207.200	72.879	
207.300	61.974	
207.400	42.129	
207.500	51.186	
207.600	70.599	
207.700	62.563	
207.800	49.437	
207.900	33.660	
208.000	73.097	
208.100	67.462	
208.200	76.199	
208.300	71.667	
208.400	50.338	
208.500	67.772	
208.600	70.949	
208.700	47.622	
208.800	62.647	
208.900	68.315	
209.000	21.557	
209.100	54.613	
209.200	53.837	
209.300	74.592	
209.400	76.907	
209.500	75.252	
209.600	49.337	
209.700	66.572	
209.800	44.763	
209.900	63.499	
210.000	52.834	
210.100	58.410	
210.200	53.828	
210.300	48.730	
210.400	56.834	
210.500	37.372	
210.600	72.146	
210.700	71.748	
210.800	63.939	
210.900	45.357	
211.000	60.643	
211.100	71.677	
211.200	46.056	
211.300	62.401	
211.400	64.391	
211.500	49.929	
211.600	57.016	
211.700	66.172	
211.800	48.959	
211.900	55.292	
212.000	51.729	
212.100	62.195	
212.200	48.082	
212.300	82.547	
212.400	58.831	
212.500	48.325	
212.600	55.894	
212.700	55.635	
212.800	59.874	
212.900	59.581	
213.000	56.115	
213.100	44.796	
213.200	74.536	
213.300	63.033	
213.400	59.306	
213.500	52.121	
213.600	80.535	
213.700	62.123	
213.800	46.892	
213.900	68.617	
214.000	70.900	
214.100	72.006	
214.200	65.089	
214.300	39.160	
214.400	76.482	
214.500	64.601	
214.600	64.150	
214.700	63.467	
214.800	48.188	
214.900	42.553	
215.000	55.827	
215.100	69.336	
215.200	57.966	
215.300	80.878	
215.400	44.419	
215.500	55.221	
215.600	57.801	
215.700	69.245	
215.800	51.568	
215.900	59.520	
216.000	52.925	
216.100	35.341	
216.200	49.771	
216.300	71.231	
216.400	66.599	
216.500	64.656	
216.600	62.894	
216.700	51.750	
216.800	34.447	
216.900	67.291	
217.000	54.369	
217.100	53.294	
217.200	70.367	
217.300	54.466	
217.400	59.009	
217.500	40.936	
217.600	67.978	
217.700	51.052	
217.800	52.607	
217.900	59.961	
218.000	49.600	
218.100	60.807	
218.200	66.370	
218.300	74.906	
218.400	64.731	
218.500	62.487	
218.600	58.023	
218.700	67.239	
218.800	65.769	
218.900	63.747	
219.000	48.791	
219.100	25.716	
219.200	42.579	
219.300	55.281	
219.400	69.449	
219.500	73.966	
219.600	55.203	
219.700	40.447	
219.800	78.323	
219.900	70.221	
220.000	48.136	
220.100	58.149	
220.200	22.894	
220.300	67.194	
220.400	61.433	
220.500	58.984	
220.600	67.636	
220.700	64.400	
220.800	75.404	
220.900	62.440	
221.000	40.109	
221.100	76.705	
221.200	51.210	
221.300	54.679	
221.400	47.741	
221.500	49.226	
221.600	61.014	
221.700	49.161	
221.800	70.252	
221.900	46.693	
222.000	64.279	
222.100	61.851	
222.200	56.502	
222.300	53.318	
222.400	55.693	
222.500	36.608	
222.600	34.092	
222.700	74.978	
222.800	49.723	
222.900	43.846	
223.000	62.711	
223.100	42.343	
223.200	42.363	
223.300	57.087	
223.400	64.632	
223.500	65.173	
223.600	52.086	
223.700	53.857	
223.800	52.064	
223.900	58.078	
224.000	77.064	
224.100	64.135	
224.200	58.909	
224.300	42.875	
224.400	38.284	
224.500	57.679	
224.600	46.657	
224.700	34.252	
224.800	53.917	
224.900	54.247	
225.000	78.255	
225.100	82.388	
225.200	68.937	
225.300	49.108	
225.400	49.296	
225.500	41.711	
225.600	46.727	
225.700	55.679	
225.800	63.695	
225.900	55.872	
226.000	52.179	
226.100	58.199	
226.200	64.253	
226.300	67.661	
226.400	47.444	
226.500	55.192	
226.600	29.843	
226.700	49.002	
226.800	50.632	
226.900	65.337	
227.000	68.595	
227.100	47.220	
227.200	46.534	
227.300	54.001	
227.400	42.170	
227.500	58.146	
227.600	62.733	
227.700	62.743	
227.800	49.252	
227.900	49.450	
228.000	51.065	
228.100	54.115	
228.200	60.401	
228.300	62.346	
228.400	32.922	
228.500	40.870	
228.600	55.207	
228.700	60.470	
228.800	57.214	
228.900	44.783	
229.000	49.589	
229.100	47.891	
229.200	72.661	
229.300	71.663	
229.400	52.603	
229.500	63.120	
229.600	51.335	
229.700	52.452	
229.800	61.812	
229.900	55.532	
230.000	45.271	
230.100	46.574	
230.200	36.279	
230.300	52.267	
230.400	58.669	
230.500	58.393	
230.600	51.938	
230.700	60.815	
230.800	39.690	
230.900	55.357	
231.000	71.409	
231.100	56.843	
231.200	53.225	
231.300	53.407	
231.400	39.439	
231.500	49.276	
231.600	68.312	
231.700	59.322	
231.800	48.629	
231.900	58.737	
232.000	50.562	
232.100	46.642	
232.200	61.887	
232.300	57.589	
232.400	33.893	
232.500	49.403	
232.600	54.727	
232.700	36.426	
232.800	65.119	
232.900	64.286	
233.000	43.150	
233.100	45.417	
233.200	55.797	
233.300	61.478	
233.400	52.738	
233.500	54.675	
233.600	51.303	
233.700	23.946	
233.800	48.230	
233.900	47.471	
234.000	59.976	
234.100	47.434	
234.200	48.594	
234.300	41.758	
234.400	46.260	
234.500	59.707	
234.600	55.915	
234.700	59.608	
234.800	48.761	
234.900	48.067	
235.000	61.361	
235.100	54.879	
235.200	68.510	
235.300	56.734	
235.400	39.288	
235.500	42.750	
235.600	49.583	
235.700	48.822	
235.800	63.824	
235.900	42.870	
236.000	37.876	
236.100	60.396	
236.200	61.118	
236.300	42.599	
236.400	54.734	
236.500	44.695	
236.600	30.802	
236.700	70.641	
236.800	44.158	
236.900	64.173	
237.000	37.363	
237.100	56.842	
237.200	25.702	
237.300	30.069	
237.400	57.979	
237.500	52.610	
237.600	56.520	
237.700	35.890	
237.800	24.610	
237.900	46.547	
238.000	72.977	
238.100	53.331	
238.200	42.488	
238.300	58.333	
238.400	56.349	
238.500	53.348	
238.600	67.274	
238.700	56.556	
238.800	46.860	
238.900	55.288	
239.000	33.950	
239.100	24.364	
239.200	45.633	
239.300	69.045	
239.400	41.591	
239.500	48.543	
239.600	52.607	
239.700	44.070	
239.800	40.627	
239.900	56.262	
240.000	28.882	
240.100	57.475	
240.200	56.396	
240.300	50.606	
240.400	49.113	
240.500	45.156	
240.600	21.191	
240.700	65.727	
240.800	53.093	
240.900	19.034	
241.000	37.885	
241.100	33.888	
241.200	36.874	
241.300	31.197	
241.400	32.554	
241.500	40.927	
241.600	30.710	
241.700	7.515	
241.800	4.233	
241.900	9.185	
242.000	33.123	
242.100	38.676	
242.200	21.242	
242.300	-4.161	
242.400	10.743	
242.500	9.970	
242.600	17.245	
242.700	24.453	
242.800	21.662	
242.900	-4.180	
243.000	2.284	
243.100	26.069	
243.200	15.678	
243.300	11.956	
243.400	14.615	
243.500	14.968	
243.600	22.043	
243.700	6.818	
243.800	20.736	
243.900	21.157	
244.000	1.027	
244.100	3.227	
244.200	4.505	
244.300	14.771	
244.400	6.140	
244.500	11.319	
244.600	11.826	
244.700	-9.339	
244.800	-2.121	
244.900	11.575	
245.000	-8.159	
245.100	12.847	
245.200	19.641	
245.300	20.836	
245.400	3.473	
245.500	17.644	
245.600	1.356	
245.700	-5.862	
245.800	18.094	
245.900	-19.415	
246.000	3.031	
246.100	24.275	
246.200	7.158	
246.300	16.140	
246.400	6.331	
246.500	-13.401	
246.600	-3.967	
246.700	26.655	
246.800	0.179	
246.900	7.867	
247.000	4.121	
247.100	10.327	
247.200	-1.596	
247.300	-2.255	
247.400	13.288	
247.500	-3.063	
247.600	7.442	
247.700	-1.439	
247.800	-3.172	
247.900	-12.359	
248.000	2.004	
248.100	0.165	
248.200	12.766	
248.300	-6.346	
248.400	-19.732	
248.500	6.980	
248.600	-0.199	
248.700	19.969	
248.800	-29.564	
248.900	-10.332	
249.000	4.372	
249.100	23.063	
249.200	-12.987	
249.300	-3.274	
249.400	10.071	
249.500	-6.510	
249.600	-3.248	
249.700	0.799	
249.800	-2.222	
249.900	-14.281	
250.000	-27.712	
250.100	-2.269	
250.200	-8.162	
250.300	-7.221	
250.400	5.973	
250.500	-11.077	
250.600	-18.416	
250.700	1.624	
250.800	-5.738	
250.900	-4.986	
251.000	-26.675	
251.100	-21.421	
251.200	-7.698	
251.300	-3.482	
251.400	-1.642	
251.500	8.698	
251.600	-34.990	
251.700	-1.935	
251.800	-11.309	
251.900	-5.027	
252.000	-0.300	
252.100	-5.832	
252.200	5.185	
252.300	-12.677	
252.400	-26.430	
252.500	-28.153	
252.600	-5.580	
252.700	6.238	
252.800	-14.258	
252.900	-7.913	
253.000	-22.493	
253.100	-15.194	
253.200	-14.100	
253.300	7.054	
253.400	-19.211	
253.500	-25.237	
253.600	-25.630	
253.700	-21.184	
253.800	14.955	
253.900	-3.827	
254.000	3.333	
254.100	-36.600	
254.200	-10.499	
254.300	-26.902	
254.400	1.998	
254.500	-37.460	
254.600	-12.024	
254.700	-33.857	
254.800	-29.877	
254.900	-16.038	
255.000	-17.651	
255.100	-3.360	
255.200	-26.948	
255.300	-18.635	
255.400	-21.458	
255.500	-34.362	
255.600	-8.469	
255.700	4.213	
255.800	-24.468	
255.900	-37.919	
256.000	-31.756	
256.100	-32.098	
256.200	-20.372	
256.300	-18.087	
256.400	-9.910	
256.500	-1.175	
256.600	-10.174	
256.700	-7.699	
256.800	-31.021	
256.900	-11.151	
257.000	-22.692	
257.100	-32.294	
257.200	-12.060	
257.300	-12.099	
257.400	-19.286	
257.500	-10.611	
257.600	-38.933	
257.700	-32.428	
257.800	-14.303	
257.900	-16.801	
258.000	3.969	
258.100	-29.217	
258.200	-36.754	
258.300	-30.507	
258.400	-30.120	
258.500	-12.903	
258.600	-24.070	
258.700	-44.087	
258.800	-24.895	
258.900	-11.674	
259.000	-17.359	
259.100	15.208	
259.200	-16.934	
259.300	-21.261	
259.400	-15.939	
259.500	-33.409	
259.600	-15.560	
259.700	-10.929	
259.800	-23.369	
259.900	-41.882	
260.000	-33.462	
260.100	-35.795	
260.200	-19.030	
260.300	-23.443	
260.400	-12.933	
260.500	-23.599	
260.600	-54.932	
260.700	-19.638	
260.800	-3.498	
260.900	-28.764	
261.000	-26.165	
261.100	-40.753	
261.200	-23.313	
261.300	-14.186	
261.400	-34.967	
261.500	-15.252	
261.600	-22.946	
261.700	-38.486	
261.800	-23.593	
261.900	-24.502	
262.000	-10.012	
262.100	-11.129	
262.200	-6.261	
262.300	-11.815	
262.400	-51.283	
262.500	-35.287	
262.600	-17.182	
262.700	3.845	
262.800	-47.929	
262.900	-36.120	
263.000	-18.606	
263.100	-17.857	
263.200	-22.140	
263.300	-4.746	
263.400	-48.855	
263.500	-33.944	
263.600	-19.114	
263.700	-48.314	
263.800	-5.284	
263.900	-23.659	
264.000	-34.631	
264.100	-22.570	
264.200	-26.820	
264.300	-37.640	
264.400	-5.488	
264.500	-16.095	
264.600	-27.128	
264.700	-25.868	
264.800	-37.569	
264.900	-36.814	
265.000	-2.303	
265.100	-12.604	
265.200	-27.543	
265.300	-38.435	
265.400	-22.341	
265.500	-23.932	
265.600	7.141	
265.700	-28.924	
265.800	-25.893	
265.900	-18.184	
266.000	-33.910	
266.100	-33.184	
266.200	-29.153	
266.300	-45.757	
266.400	-16.805	
266.500	-21.693	
266.600	-30.068	
266.700	-14.986	
266.800	-21.371	
266.900	-26.893	
267.000	-28.480	
267.100	-40.639	
267.200	1.575	
267.300	-13.084	
267.400	-27.429	
267.500	-38.993	
267.600	-22.594	
267.700	-17.980	
267.800	-28.069	
267.900	-32.970	
268.000	-25.871	
268.100	-32.445	
268.200	-31.502	
268.300	-23.165	
268.400	-14.632	
268.500	-12.183	
268.600	-37.506	
268.700	-39.788	
268.800	-3.353	
268.900	-22.899	
269.000	-28.562	
269.100	-14.627	
269.200	-26.985	
269.300	-27.819	
269.400	-38.086	
269.500	-20.007	
269.600	-19.218	
269.700	-10.558	
269.800	-32.656	
269.900	-40.669	
270.000	-42.243	
270.100	-23.569	
270.200	-18.266	
270.300	-2.233	
270.400	-17.242	
270.500	-34.627	
270.600	-29.867	
270.700	-28.683	
270.800	-21.304	
270.900	-16.284	
271.000	-34.377	
271.100	-33.471	
271.200	10.267	
271.300	-19.405	
271.400	-20.921	
271.500	-8.480	
271.600	-38.534	
271.700	-30.285	
271.800	-28.845	
271.900	-36.578	
272.000	-18.491	
272.100	-21.376	
272.200	-37.461	
272.300	-31.036	
272.400	-20.173	
272.500	-23.429	
272.600	-20.433	
272.700	-20.263	
272.800	-21.002	
272.900	-16.702	
273.000	-15.294	
273.100	-33.707	
273.200	-23.038	
273.300	-31.791	
273.400	-32.107	
273.500	-3.757	
273.600	-13.055	
273.700	-23.302	
273.800	-20.069	
273.900	-34.409	
274.000	-51.217	
274.100	-34.183	
274.200	-3.649	
274.300	-21.244	
274.400	-11.716	
274.500	-24.073	
274.600	-23.617	
274.700	-8.915	
274.800	-27.667	
274.900	-32.450	
275.000	-25.536	
275.100	-53.678	
275.200	-45.297	
275.300	-21.883	
275.400	2.237	
275.500	-15.850	
275.600	-23.279	
275.700	-13.199	
275.800	-20.857	
275.900	-21.216	
276.000	-19.343	
276.100	-33.888	
276.200	-18.499	
276.300	-31.424	
276.400	-20.657	
276.500	2.514	
276.600	-12.781	
276.700	-23.248	
276.800	-1.751	
276.900	-20.575	
277.000	-41.107	
277.100	-7.466	
277.200	-14.860	
277.300	-19.092	
277.400	-32.928	
277.500	-25.627	
277.600	-47.754	
277.700	-6.813	
277.800	-16.375	
277.900	-12.451	
278.000	-26.957	
278.100	-35.769	
278.200	-35.141	
278.300	-7.041	
278.400	-0.992	
278.500	-47.474	
278.600	-33.159	
278.700	-44.760	
278.800	-18.515	
278.900	-19.330	
279.000	-24.332	
279.100	-4.694	
279.200	-37.798	
279.300	-29.361	
279.400	-16.751	
279.500	-11.818	
279.600	-16.878	
279.700	-26.358	
279.800	-22.001	
279.900	-50.337	
280.000	-22.968	
280.100	0.405	
280.200	-5.175	
280.300	-36.880	
280.400	-36.074	
280.500	-20.309	
280.600	-19.565	
280.700	-30.490	
280.800	-31.746	
280.900	-29.926	
281.000	-15.982	
281.100	-23.267	
281.200	3.764	
281.300	-28.545	
281.400	-31.894	
281.500	-32.457	
281.600	-30.763	
281.700	-22.573	
281.800	-29.044	
281.900	-24.128	
282.000	-23.747	
282.100	-44.911	
282.200	-28.168	
282.300	-18.405	
282.400	-28.488	
282.500	-24.086	
282.600	-29.087	
282.700	-31.369	
282.800	-22.638	
282.900	-24.839	
283.000	-11.004	
283.100	-19.736	
283.200	-25.096	
283.300	-35.110	
283.400	-22.265	
283.500	-39.045	
283.600	-9.026	
283.700	-11.803	
283.800	-19.300	
283.900	-44.846	
284.000	-38.698	
284.100	-30.335	
284.200	-25.572	
284.300	-6.339	
284.400	-49.356	
284.500	-31.820	
284.600	-25.177	
284.700	-11.703	
284.800	-3.973	
284.900	-16.360	
285.000	-21.128	
285.100	-25.796	
285.200	-26.413	
285.300	-31.382	
285.400	-14.921	
285.500	-33.570	
285.600	-23.660	
285.700	-15.227	
285.800	-28.617	
285.900	-22.503	
286.000	2.276	
286.100	-16.176	
286.200	-21.436	
286.300	-42.496	
286.400	-28.291	
286.500	-9.383	
286.600	-14.906	
286.700	-35.568	
286.800	-39.338	
286.900	-43.500	
287.000	0.905	
287.100	-9.635	
287.200	-18.655	
287.300	-28.026	
287.400	-31.390	
287.500	-23.782	
287.600	-12.085	
287.700	-15.320	
287.800	-14.057	
287.900	-22.119	
288.000	-15.516	
288.100	-32.513	
288.200	-31.944	
288.300	-36.506	
288.400	-5.068	
288.500	-13.768	
288.600	-15.468	
288.700	-8.937	
288.800	-13.232	
288.900	-28.285	
289.000	-20.744	
289.100	-25.019	
289.200	-9.980	
289.300	-7.215	
289.400	-30.823	
289.500	-31.432	
289.600	-5.749	
289.700	-29.595	
289.800	-0.654	
289.900	-34.865	
290.000	-15.870	
290.100	-19.821	
290.200	-41.481	
290.300	-21.475	
290.400	-12.170	
290.500	-6.794	
290.600	-9.689	
290.700	-23.639	
290.800	-18.335	
290.900	-24.045	
291.000	-19.476	
291.100	-17.390	
291.200	-25.669	
291.300	-38.380	
291.400	-38.896	
291.500	-25.425	
291.600	-30.232	
291.700	-17.313	
291.800	-9.730	
291.900	-27.835	
292.000	-34.711	
292.100	-30.232	
292.200	-31.642	
292.300	-16.184	
292.400	-4.701	
292.500	-20.146	
292.600	-33.040	
292.700	-13.599	
292.800	-12.286	
292.900	-27.001	
293.000	-26.962	
293.100	-23.413	
293.200	-34.857	
293.300	-26.285	
293.400	-11.003	
293.500	-17.167	
293.600	-10.776	
293.700	-28.590	
293.800	-21.208	
293.900	-22.284	
294.000	-8.339	
294.100	-11.172	
294.200	-52.249	
294.300	-35.858	
294.400	-4.405	
294.500	-20.467	
294.600	-19.396	
294.700	-7.856	
294.800	-19.697	
294.900	-35.316	
295.000	-28.693	
295.100	-25.257	
295.200	-42.426	
295.300	-27.905	
295.400	-23.136	
295.500	-12.094	
295.600	-54.239	
295.700	-41.493	
295.800	-4.719	
295.900	-12.121	
296.000	-7.136	
296.100	-29.484	
296.200	-27.614	
296.300	-38.399	
296.400	-12.752	
296.500	-6.346	
296.600	-14.263	
296.700	-27.707	
296.800	-34.286	
296.900	-36.056	
297.000	-7.093	
297.100	-15.254	
297.200	-16.211	
297.300	-26.756	
297.400	-36.121	
297.500	-11.087	
297.600	-35.038	
297.700	-25.962	
297.800	-7.149	
297.900	-21.219	
298.000	-43.045	
298.100	-5.134	
298.200	-4.601	
298.300	-21.104	
298.400	-25.029	
298.500	-27.870	
298.600	-44.693	
298.700	-14.555	
298.800	-30.272	
298.900	-33.801	
299.000	-12.551	
299.100	-20.965	
299.200	-29.580	
299.300	-5.234	
299.400	-21.405	
299.500	-49.372	
299.600	-14.507	
299.700	-29.872	
299.800	-19.403	
299.900	-15.061	
300.000	-35.331	
300.100	-15.126	
300.200	-14.483	
300.300	-31.925	
300.400	-16.623	
300.500	-23.169	
300.600	-13.410	
300.700	-20.236	
300.800	-12.530	
300.900	-12.298	
301.000	-31.256	
301.100	-13.001	
301.200	-10.833	
301.300	-30.038	
301.400	-27.623	
301.500	-17.925	
301.600	-15.558	
301.700	-11.954	
301.800	-5.799	
301.900	-39.669	
302.000	-34.660	
302.100	-18.626	
302.200	-21.263	
302.300	-11.762	
302.400	-15.413	
302.500	-26.783	
302.600	-35.574	
302.700	-19.067	
302.800	-37.884	
302.900	-11.520	
303.000	-28.416	
303.100	-15.857	
303.200	-24.562	
303.300	-23.305	
303.400	-18.090	
303.500	-13.428	
303.600	-30.979	
303.700	-16.411	
303.800	-25.027	
303.900	-21.935	
304.000	-18.621	
304.100	-22.691	
304.200	-12.231	
304.300	-22.845	
304.400	-9.948	
304.500	-36.158	
304.600	-10.140	
304.700	1.525	
304.800	-24.377	
304.900	-37.024	
305.000	-19.845	
305.100	-32.120	
305.200	-11.999	
305.300	-12.260	
305.400	-24.017	
305.500	-38.272	
305.600	-18.851	
305.700	-10.310	
305.800	-34.734	
305.900	-19.986	
306.000	-10.482	
306.100	-23.999	
306.200	-19.296	
306.300	-19.649	
306.400	-8.695	
306.500	-17.614	
306.600	-25.743	
306.700	-20.870	
306.800	-35.452	
306.900	-17.031	
307.000	-18.948	
307.100	-19.282	
307.200	-42.974	
307.300	-4.941	
307.400	-29.508	
307.500	-34.806	
307.600	-10.365	
307.700	-1.093	
307.800	-35.200	
307.900	-31.491	
308.000	-19.910	
308.100	-22.804	
308.200	-10.810	
308.300	-22.706	
308.400	-22.146	
308.500	-22.607	
308.600	-13.631	
308.700	-27.197	
308.800	-19.281	
308.900	-22.961	
309.000	-36.406	
309.100	-12.214	
309.200	-10.473	
309.300	-24.165	
309.400	-15.424	
309.500	-19.873	
309.600	-30.052	
309.700	-24.406	
309.800	-14.649	
309.900	-22.593	
310.000	0.270	
310.100	-34.096	
310.200	-17.502	
310.300	-0.378	
310.400	-34.946	
310.500	-8.133	
310.600	-14.480	
310.700	-34.996	
310.800	-17.919	
310.900	-14.648	
311.000	-8.415	
311.100	-14.710	
311.200	-10.669	
311.300	-23.969	
311.400	-26.602	
311.500	-28.086	
311.600	-9.179	
311.700	-12.920	
311.800	-24.408	
311.900	-21.752	
312.000	-30.341	
312.100	-24.879	
312.200	-7.814	
312.300	-1.770	
312.400	-21.934	
312.500	-27.501	
312.600	-29.280	
312.700	-19.127	
312.800	13.592	
312.900	-5.977	
313.000	-31.333	
313.100	-38.987	
313.200	-30.909	
313.300	-15.837	
313.400	-24.137	
313.500	-16.078	
313.600	-21.801	
313.700	-27.358	
313.800	-16.486	
313.900	-10.668	
314.000	-19.438	
314.100	-9.660	
314.200	-36.072	
314.300	-17.854	
314.400	-30.861	
314.500	-18.428	
314.600	-4.706	
314.700	-23.739	
314.800	-22.684	
314.900	-20.787	
315.000	4.978	
315.100	-20.565	
315.200	-14.925	
315.300	-38.598	
315.400	-21.071	
315.500	-37.200	
315.600	-16.547	
315.700	-7.526	
315.800	-10.950	
315.900	-29.142	
316.000	-54.992	
316.100	-32.394	
316.200	-5.268	
316.300	-13.149	
316.400	-21.382	
316.500	-43.366	
316.600	-17.474	
316.700	-12.959	
316.800	-25.766	
316.900	-34.413	
317.000	-9.703	
317.100	-16.049	
317.200	-24.869	
317.300	-25.430	
317.400	-14.724	
317.500	-6.920	
317.600	-16.824	
317.700	-20.139	
317.800	-27.031	
317.900	-17.715	
318.000	-22.229	
318.100	-22.738	
318.200	-15.679	
318.300	-30.866	
318.400	-11.342	
318.500	-30.825	
318.600	-24.987	
318.700	-6.137	
318.800	-3.394	
318.900	-34.952	
319.000	-14.387	
319.100	-10.397	
319.200	-29.825	
319.300	-8.769	
319.400	-21.966	
319.500	-24.282	
319.600	-31.854	
319.700	-25.971	
319.800	-15.855	
319.900	6.641	
320.000	-11.642	
320.100	-32.317	
320.200	17.444	
320.300	-8.733	
320.400	8.130	
320.500	-6.866	
320.600	-26.842	
320.700	-21.980	
320.800	-35.218	
320.900	-15.444	
321.000	-5.617	
321.100	-16.152	
321.200	-8.664	
321.300	-26.191	
321.400	-23.183	
321.500	-17.232	
321.600	-19.218	
321.700	-44.015	
321.800	-38.103	
321.900	-11.786	
322.000	11.115	
322.100	-11.702	
322.200	-26.666	
322.300	8.437	
322.400	-24.777	
322.500	-25.543	
322.600	-20.454	
322.700	-1.659	
322.800	-12.676	
322.900	-37.612	
323.000	-32.032	
323.100	-17.684	
323.200	-38.323	
323.300	-6.355	
323.400	8.205	
323.500	-20.290	
323.600	-31.721	
323.700	-21.389	
323.800	-16.282	
323.900	-2.686	
324.000	-28.946	
324.100	-34.271	
324.200	-21.426	
324.300	-39.931	
324.400	-17.379	
324.500	-16.042	
324.600	-13.223	
324.700	2.772	
324.800	-25.177	
324.900	2.421	
325.000	-26.033	
325.100	-31.404	
325.200	-4.482	
325.300	-26.497	
325.400	-15.852	
325.500	-21.369	
325.600	-6.786	
325.700	-5.423	
325.800	-10.625	
325.900	-24.158	
326.000	-33.950	
326.100	-1.996	
326.200	-7.540	
326.300	-11.603	
326.400	-46.376	
326.500	-31.341	
326.600	-22.953	
326.700	-4.539	
326.800	-4.568	
326.900	-26.233	
327.000	-11.369	
327.100	-29.019	
327.200	-23.226	
327.300	-19.282	
327.400	2.756	
327.500	-13.602	
327.600	-11.445	
327.700	-38.782	
327.800	-21.975	
327.900	-25.861	
328.000	3.536	
328.100	-17.447	
328.200	-27.942	
328.300	-42.258	
328.400	-13.762	
328.500	10.281	
328.600	-5.510	
328.700	-12.331	
328.800	-38.317	
328.900	-26.165	
329.000	-35.415	
329.100	-30.152	
329.200	-17.168	
329.300	-39.892	
329.400	-30.247	
329.500	-20.023	
329.600	-2.206	
329.700	-12.689	
329.800	-13.914	
329.900	-14.564	
330.000	-12.312	
330.100	-9.756	
330.200	-24.346	
330.300	-10.738	
330.400	-34.563	
330.500	-20.999	
330.600	-6.787	
330.700	-23.531	
330.800	-1.013	
330.900	-6.264	
331.000	-6.329	
331.100	-5.840	
331.200	19.140	
331.300	23.752	
331.400	6.137	
331.500	3.935	
331.600	29.597	
331.700	-7.483	
331.800	28.106	
331.900	7.217	
332.000	16.821	
332.100	23.819	
332.200	16.479	
332.300	14.433	
332.400	-16.524	
332.500	36.865	
332.600	11.868	
332.700	6.920	
332.800	34.398	
332.900	0.201	
333.000	27.344	
333.100	14.977	
333.200	28.948	
333.300	37.698	
333.400	-12.799	
333.500	1.997	
333.600	17.503	
333.700	23.287	
333.800	7.599	
333.900	26.254	
334.000	17.254	
334.100	22.750	
334.200	2.415	
334.300	15.090	
334.400	19.201	
334.500	18.053	
334.600	17.196	
334.700	19.872	
334.800	8.942	
334.900	11.374	
335.000	32.472	
335.100	26.243	
335.200	12.399	
335.300	0.258	
335.400	12.332	
335.500	15.927	
335.600	6.717	
335.700	22.908	
335.800	20.825	
335.900	3.077	
336.000	1.594	
336.100	18.212	
336.200	29.123	
336.300	22.419	
336.400	1.780	
336.500	28.206	
336.600	-0.992	
336.700	16.761	
336.800	18.763	
336.900	26.034	
337.000	33.051	
337.100	-12.473	
337.200	15.056	
337.300	7.863	
337.400	31.462	
337.500	-7.390	
337.600	19.366	
337.700	1.342	
337.800	16.304	
337.900	6.435	
338.000	22.877	
338.100	-2.141	
338.200	11.422	
338.300	12.754	
338.400	16.053	
338.500	24.846	
338.600	27.309	
338.700	7.205	
338.800	-0.962	
338.900	6.720	
339.000	25.135	
339.100	24.560	
339.200	27.697	
339.300	-13.041	
339.400	-3.633	
339.500	33.003	
339.600	17.160	
339.700	12.587	
339.800	38.789	
339.900	8.310	
340.000	5.176	
340.100	28.828	
340.200	43.915	
340.300	26.587	
340.400	10.890	
340.500	16.428	
340.600	31.395	
340.700	21.876	
340.800	32.107	
340.900	37.524	
341.000	27.221	
341.100	11.674	
341.200	9.437	
341.300	39.756	
341.400	28.203	
341.500	36.250	
341.600	44.721	
341.700	21.708	
341.800	20.776	
341.900	37.916	
342.000	30.605	
342.100	15.144	
342.200	14.711	
342.300	22.163	
342.400	18.174	
342.500	22.855	
342.600	39.886	
342.700	49.771	
342.800	25.005	
342.900	15.068	
343.000	6.774	
343.100	18.036	
343.200	44.747	
343.300	40.868	
343.400	39.199	
343.500	28.467	
343.600	18.715	
343.700	22.322	
343.800	33.354	
343.900	45.273	
344.000	46.837	
344.100	35.936	
344.200	28.346	
344.300	38.471	
344.400	46.424	
344.500	30.622	
344.600	27.928	
344.700	39.889	
344.800	37.382	
344.900	38.080	
345.000	27.959	
345.100	53.502	
345.200	19.511	
345.300	36.345	
345.400	37.191	
345.500	31.190	
345.600	36.140	
345.700	42.656	
345.800	37.230	
345.900	32.428	
346.000	53.989	
346.100	56.825	
346.200	45.917	
346.300	49.299	
346.400	40.577	
346.500	33.145	
346.600	33.819	
346.700	78.734	
346.800	36.175	
346.900	27.638	
347.000	41.910	
347.100	53.796	
347.200	53.267	
347.300	64.936	
347.400	57.723	
347.500	63.448	
347.600	50.746	
347.700	32.996	
347.800	65.843	
347.900	60.150	
348.000	54.810	
348.100	52.971	
348.200	53.340	
348.300	43.004	
348.400	52.487	
348.500	56.171	
348.600	46.400	
348.700	56.595	
348.800	31.315	
348.900	32.208	
349.000	70.554	
349.100	54.327	
349.200	49.301	
349.300	79.455	
349.400	64.922	
349.500	67.560	
349.600	63.019	
349.700	74.261	
349.800	48.195	
349.900	38.480	
350.000	54.538	
350.100	75.893	
350.200	69.637	
350.300	56.941	
350.400	74.701	
350.500	57.811	
350.600	67.071	
350.700	52.450	
350.800	75.550	
350.900	43.946	
351.000	44.929	
351.100	81.356	
351.200	68.896	
351.300	60.158	
351.400	49.051	
351.500	78.556	
351.600	68.729	
351.700	51.577	
351.800	66.158	
351.900	69.547	
352.000	62.813	
352.100	49.311	
352.200	67.123	
352.300	56.978	
352.400	82.865	
352.500	60.950	
352.600	65.244	
352.700	70.914	
352.800	54.536	
352.900	63.754	
353.000	62.121	
353.100	52.902	
353.200	54.063	
353.300	61.998	
353.400	32.231	
353.500	39.864	
353.600	66.594	
353.700	61.351	
353.800	72.722	
353.900	61.248	
354.000	72.104	
354.100	53.529	
354.200	76.328	
354.300	72.794	
354.400	78.058	
354.500	50.904	
354.600	59.414	
354.700	52.158	
354.800	67.486	
354.900	50.841	
355.000	70.845	
355.100	63.032	
355.200	60.894	
355.300	59.836	
355.400	72.024	
355.500	49.009	
355.600	58.105	
355.700	66.668	
355.800	60.479	
355.900	53.627	
356.000	75.800	
356.100	50.104	
356.200	61.441	
356.300	75.765	
356.400	51.508	
356.500	66.510	
356.600	67.934	
356.700	53.722	
356.800	57.913	
356.900	56.324	
357.000	59.535	
357.100	65.741	
357.200	48.894	
357.300	61.937	
357.400	55.036	
357.500	52.079	
357.600	78.367	
357.700	81.721	
357.800	65.655	
357.900	46.342	
358.000	61.242	
358.100	54.693	
358.200	63.983	
358.300	67.955	
358.400	79.104	
358.500	63.396	
358.600	58.269	
358.700	54.125	
358.800	45.730	
358.900	55.938	
359.000	83.220	
359.100	71.124	
359.200	39.564	
359.300	41.369	
359.400	60.751	
359.500	85.457	
359.600	66.945	
359.700	58.569	
359.800	65.506	
359.900	57.141	
360.000	46.112	
360.100	64.452	
360.200	53.684	
360.300	47.601	
360.400	56.596	
360.500	66.752	
360.600	71.032	
360.700	84.361	
360.800	53.536	
360.900	75.511	
361.000	59.168	
361.100	63.521	
361.200	71.779	
361.300	62.805	
361.400	66.524	
361.500	50.288	
361.600	57.554	
361.700	47.733	
361.800	41.857	
361.900	75.300	
362.000	70.670	
362.100	71.781	
362.200	69.982	
362.300	61.303	
362.400	47.108	
362.500	56.248	
362.600	70.889	
362.700	68.018	
362.800	38.633	
362.900	46.178	
363.000	80.006	
363.100	66.008	
363.200	57.388	
363.300	55.768	
363.400	62.909	
363.500	65.043	
363.600	50.940	
363.700	86.764	
363.800	58.181	
363.900	53.555	
364.000	57.502	
364.100	56.390	
364.200	48.278	
364.300	68.876	
364.400	44.041	
364.500	67.472	
364.600	64.725	
364.700	82.099	
364.800	50.064	
364.900	62.672	
365.000	48.505	
365.100	61.966	
365.200	74.173	
365.300	61.146	
365.400	62.089	
365.500	57.456	
365.600	46.685	
365.700	46.283	
365.800	64.269	
365.900	57.246	
366.000	58.650	
366.100	62.026	
366.200	58.678	
366.300	66.740	
366.400	48.777	
366.500	39.352	
366.600	61.915	
366.700	60.646	
366.800	65.224	
366.900	41.158	
367.000	59.610	
367.100	54.603	
367.200	50.914	
367.300	69.634	
367.400	56.694	
367.500	69.948	
367.600	77.205	
367.700	35.018	
367.800	40.101	
367.900	52.627	
368.000	61.227	
368.100	55.719	
368.200	82.736	
368.300	61.217	
368.400	70.231	
368.500	50.782	
368.600	66.953	
368.700	61.388	
368.800	61.535	
368.900	58.785	
369.000	59.166	
369.100	71.405	
369.200	50.624	
369.300	49.196	
369.400	40.412	
369.500	74.687	
369.600	58.883	
369.700	59.759	
369.800	46.360	
369.900	55.497	
370.000	73.111	
370.100	62.905	
370.200	49.901	
370.300	41.295	
370.400	70.243	
370.500	59.819	
370.600	55.015	
370.700	81.139	
370.800	72.025	
370.900	33.340	
371.000	45.498	
371.100	65.000	
371.200	71.678	
371.300	45.622	
371.400	54.667	
371.500	57.789	
371.600	49.715	
371.700	70.471	
371.800	67.238	
371.900	51.022	
372.000	57.195	
372.100	46.626	
372.200	64.262	
372.300	61.391	
372.400	42.553	
372.500	46.786	
372.600	36.592	
372.700	67.372	
372.800	40.696	
372.900	90.930	
373.000	51.540	
373.100	72.874	
373.200	69.454	
373.300	65.955	
373.400	48.141	
373.500	60.370	
373.600	54.761	
373.700	39.390	
373.800	65.898	
373.900	55.531	
374.000	53.765	
374.100	49.922	
374.200	59.264	
374.300	54.287	
374.400	61.326	
374.500	57.322	
374.600	60.613	
374.700	59.311	
374.800	52.815	
374.900	57.582	
375.000	65.998	
375.100	32.377	
375.200	50.107	
375.300	66.026	
375.400	46.329	
375.500	58.690	
375.600	52.730	
375.700	48.823	
375.800	59.853	
375.900	44.910	
376.000	77.900	
376.100	52.427	
376.200	52.968	
376.300	45.998	
376.400	72.554	
376.500	45.304	
376.600	30.998	
376.700	42.116	
376.800	61.228	
376.900	59.796	
377.000	44.890	
377.100	66.478	
377.200	63.113	
377.300	48.111	
377.400	50.472	
377.500	54.163	
377.600	52.113	
377.700	57.270	
377.800	40.755	
377.900	52.888	
378.000	56.917	
378.100	59.201	
378.200	57.977	
378.300	59.514	
378.400	54.739	
378.500	68.424	
378.600	29.636	
378.700	75.995	
378.800	66.554	
378.900	55.284	
379.000	51.790	
379.100	57.928	
379.200	50.369	
379.300	55.244	
379.400	71.176	
379.500	62.249	
379.600	37.918	
379.700	51.985	
379.800	69.781	
379.900	53.569	
380.000	49.637	
380.100	39.855	
380.200	47.282	
380.300	43.553	
380.400	51.636	
380.500	64.794	
380.600	57.773	
380.700	59.628	
380.800	53.006	
380.900	45.213	
381.000	68.529	
381.100	69.117	
381.200	63.845	
381.300	58.628	
381.400	52.973	
381.500	50.330	
381.600	52.883	
381.700	51.076	
381.800	71.709	
381.900	53.791	
382.000	57.660	
382.100	37.278	
382.200	46.278	
382.300	53.854	
382.400	60.010	
382.500	56.893	
382.600	43.862	
382.700	36.971	
382.800	54.669	
382.900	68.650	
383.000	53.874	
383.100	51.646	
383.200	42.601	
383.300	47.113	
383.400	51.251	
383.500	70.997	
383.600	42.426	
383.700	42.247	
383.800	41.620	
383.900	50.472	
384.000	62.591	
384.100	51.078	
384.200	63.278	
384.300	38.750	
384.400	32.474	
384.500	45.859	
384.600	66.453	
384.700	53.960	
384.800	29.615	
384.900	66.728	
385.000	46.971	
385.100	38.812	
385.200	75.043	
385.300	64.367	
385.400	35.690	
385.500	28.836	
385.600	56.405	
385.700	53.247	
385.800	63.257	
385.900	51.765	
386.000	38.508	
386.100	64.580	
386.200	53.291	
386.300	51.751	
386.400	46.478	
386.500	59.734	
386.600	48.627	
386.700	50.180	
386.800	61.888	
386.900	45.692	
387.000	41.940	
387.100	60.047	
387.200	40.967	
387.300	16.960	
387.400	74.060	
387.500	50.806	
387.600	61.625	
387.700	69.487	
387.800	52.225	
387.900	32.853	
388.000	72.593	
388.100	65.655	
388.200	46.519	
388.300	46.937	
388.400	64.174	
388.500	45.884	
388.600	46.925	
388.700	38.251	
388.800	55.390	
388.900	41.110	
389.000	58.588	
389.100	54.287	
389.200	31.331	
389.300	49.252	
389.400	48.583	
389.500	43.820	
389.600	48.691	
389.700	55.950	
389.800	57.883	
389.900	37.812	
390.000	55.036	
390.100	53.200	
390.200	49.697	
390.300	39.021	
390.400	50.430	
390.500	49.914	
390.600	33.798	
390.700	26.755	
390.800	45.493	
390.900	30.532	
391.000	49.140	
391.100	46.444	
391.200	35.546	
391.300	17.196	
391.400	20.734	
391.500	18.501	
391.600	15.193	
391.700	21.398	
391.800	25.893	
391.900	18.625	
392.000	8.968	
392.100	6.589	
392.200	28.149	
392.300	16.608	
392.400	22.874	
392.500	-7.073	
392.600	0.907	
392.700	11.442	
392.800	-7.319	
392.900	8.412	
393.000	3.477	
393.100	27.713	
393.200	14.990	
393.300	8.664	
393.400	16.396	
393.500	16.703	
393.600	2.158	
393.700	-7.917	
393.800	11.567	
393.900	1.436	
394.000	23.552	
394.100	22.296	
394.200	-10.177	
394.300	-15.287	
394.400	-5.778	
394.500	-1.062	
394.600	16.335	
394.700	9.356	
394.800	-19.569	
394.900	-26.199	
395.000	-16.924	
395.100	12.908	
395.200	30.501	
395.300	2.377	
395.400	5.626	
395.500	13.553	
395.600	4.788	
395.700	14.447	
395.800	-0.160	
395.900	-16.575	
396.000	-12.372	
396.100	23.690	
396.200	-15.845	
396.300	-15.158	
396.400	3.465	
396.500	-0.155	
396.600	10.195	
396.700	-4.728	
396.800	0.841	
396.900	0.953	
397.000	17.365	
397.100	-15.666	
397.200	-15.226	
397.300	14.106	
397.400	1.758	
397.500	16.591	
397.600	-11.988	
397.700	-12.386	
397.800	-20.150	
397.900	-6.393	
398.000	6.320	
398.100	4.031	
398.200	5.404	
398.300	-18.699	
398.400	0.842	
398.500	-13.057	
398.600	-10.658	
398.700	-0.983	
398.800	-11.268	
398.900	-17.929	
399.000	-18.973	
399.100	-30.172	
399.200	-2.234	
399.300	-12.019	
399.400	4.612	
399.500	-25.813	
399.600	-21.024	
399.700	3.572	
399.800	-10.111	
399.900	-8.271	
400.000	-16.339	
400.100	-12.070	
400.200	-16.222	
400.300	-14.830	
400.400	-20.987	
400.500	-20.836	
400.600	-30.705	
400.700	-26.034	
400.800	-16.838	
400.900	-18.795	
401.000	1.767	
401.100	7.126	
401.200	-25.007	
401.300	0.258	
401.400	-13.217	
401.500	-2.539	
401.600	-0.372	
401.700	-19.947	
401.800	-1.741	
401.900	-23.456	
402.000	-30.439	
402.100	-4.306	
402.200	-5.318	
402.300	0.949	
402.400	-37.500	
402.500	-35.438	
402.600	-4.493	
402.700	-13.639	
402.800	-9.543	
402.900	-19.837	
403.000	-21.915	
403.100	-17.580	
403.200	-10.065	
403.300	-21.870	
403.400	-9.208	
403.500	-13.714	
403.600	-33.093	
403.700	-30.075	
403.800	-7.938	
403.900	-27.091	
404.000	-3.515	
404.100	-18.607	
404.200	-21.664	
404.300	-21.734	
404.400	-12.193	
404.500	-11.155	
404.600	-33.216	
404.700	-20.209	
404.800	-17.448	
404.900	-41.228	
405.000	-13.776	
405.100	-22.902	
405.200	-31.817	
405.300	-5.149	
405.400	-5.292	
405.500	-19.234	
405.600	-10.836	
405.700	-12.180	
405.800	-19.709	
405.900	-31.954	
406.000	-44.718	
406.100	-33.304	
406.200	-14.307	
406.300	-13.774	
406.400	-23.233	
406.500	-31.871	
406.600	-24.746	
406.700	-14.159	
406.800	-27.932	
406.900	-20.661	
407.000	-19.273	
407.100	-30.799	
407.200	-36.065	
407.300	-28.734	
407.400	-8.230	
407.500	-27.728	
407.600	-26.937	
407.700	-53.805	
407.800	-13.505	
407.900	-10.660	
408.000	-7.995	
408.100	-44.069	
408.200	-35.389	
408.300	-34.573	
408.400	-27.810	
408.500	-36.698	
408.600	-18.705	
408.700	-33.586	
408.800	-19.827	
408.900	-35.164	
409.000	-18.629	
409.100	-8.659	
409.200	-5.934	
409.300	-31.071	
409.400	-46.070	
409.500	-27.304	
409.600	-25.894	
409.700	-11.131	
409.800	-22.357	
409.900	-24.996	
410.000	-28.228	
410.100	-52.694	
410.200	-29.988	
410.300	-26.985	
410.400	-20.082	
410.500	-34.571	
410.600	-41.048	
410.700	-47.609	
410.800	-24.033	
410.900	-22.396	
411.000	-18.792	
411.100	-50.785	
411.200	-40.220	
411.300	-25.879	
411.400	-14.309	
411.500	-18.641	
411.600	-38.575	
411.700	-36.623	
411.800	-34.913	
411.900	-20.758	
412.000	-13.060	
412.100	-18.665	
412.200	-19.947	
412.300	-46.011	
412.400	-42.063	
412.500	-25.989	
412.600	-29.882	
412.700	-7.238	
412.800	-32.168	
412.900	-46.512	
413.000	-18.496	
413.100	-36.953	
413.200	-37.083	
413.300	-34.065	
413.400	-46.403	
413.500	-33.728	
413.600	-25.132	
413.700	-31.822	
413.800	-19.630	
413.900	-24.594	
414.000	-35.991	
414.100	-12.449	
414.200	-26.273	
414.300	-22.696	
414.400	-31.540	
414.500	-28.249	
414.600	-30.873	
414.700	-40.023	
414.800	-44.955	
414.900	-26.054	
415.000	-45.544	
415.100	-24.523	
415.200	-28.924	
415.300	-53.565	
415.400	-30.258	
415.500	-31.411	
415.600	-23.213	
415.700	-14.047	
415.800	-24.555	
415.900	-16.967	
416.000	-20.106	
416.100	-47.170	
416.200	-35.139	
416.300	-8.171	
416.400	-45.746	
416.500	-31.716	
416.600	-13.210	
416.700	-27.658	
416.800	-33.186	
416.900	-39.581	
417.000	-17.777	
417.100	-30.698	
417.200	-25.658	
417.300	-23.203	
417.400	-38.259	
417.500	-10.455	
417.600	-25.408	
417.700	-24.284	
417.800	-44.979	
417.900	-25.142	
418.000	-20.927	
418.100	-31.208	
418.200	-41.667	
418.300	-13.083	
418.400	-37.593	
418.500	-22.571	
418.600	-29.095	
418.700	-36.411	
418.800	-16.527	
418.900	-67.912	
419.000	-23.901	
419.100	-22.897	
419.200	-33.453	
419.300	-15.452	
419.400	-37.431	
419.500	-40.184	
419.600	-17.576	
419.700	-21.715	
419.800	-35.080	
419.900	-49.409	
420.000	-23.354	
420.100	-39.515	
420.200	-20.902	
420.300	-5.121	
420.400	-25.538	
420.500	-46.996	
420.600	-30.656	
420.700	-45.254	
420.800	-27.671	
420.900	-26.620	
421.000	-21.622	
421.100	-35.975	
421.200	-36.137	
421.300	-12.795	
421.400	-47.400	
421.500	-21.474	
421.600	-33.754	
421.700	-37.637	
421.800	-35.918	
421.900	-24.999	
422.000	-12.621	
422.100	-33.092	
422.200	-33.809	
422.300	-44.464	
422.400	-61.113	
422.500	-13.518	
422.600	-15.056	
422.700	-25.409	
422.800	-30.651	
422.900	-46.968	
423.000	-60.023	
423.100	-47.876	
423.200	-8.635	
423.300	-24.271	
423.400	-31.648	
423.500	-42.295	
423.600	-21.706	
423.700	-26.365	
423.800	-14.859	
423.900	-15.715	
424.000	-51.258	
424.100	-34.177	
424.200	-29.454	
424.300	-29.938	
424.400	-17.871	
424.500	-30.141	
424.600	-45.734	
424.700	-25.256	
424.800	-17.527	
424.900	-26.395	
425.000	-49.612	
425.100	-40.696	
425.200	-44.573	
425.300	-33.193	
425.400	-20.131	
425.500	-43.901	
425.600	5.177	
425.700	-26.765	
425.800	-27.980	
425.900	-26.986	
426.000	-17.340	
426.100	-8.876	
426.200	-23.383	
426.300	-31.299	
426.400	-42.002	
426.500	-37.294	
426.600	-43.354	
426.700	-10.075	
426.800	-31.562	
426.900	-18.289	
427.000	-29.384	
427.100	-38.999	
427.200	-34.446	
427.300	-40.264	
427.400	-32.830	
427.500	-42.162	
427.600	-42.856	
427.700	-23.536	
427.800	-19.955	
427.900	-28.614	
428.000	-20.178	
428.100	-34.311	
428.200	-33.010	
428.300	-62.132	
428.400	-36.118	
428.500	-24.597	
428.600	-24.775	
428.700	-11.319	
428.800	-24.660	
428.900	-37.442	
429.000	-52.516	
429.100	0.034	
429.200	-47.402	
429.300	-43.161	
429.400	-19.739	
429.500	-26.865	
429.600	-30.584	
429.700	0.492	
429.800	-28.586	
429.900	-37.740	
430.000	-46.121	
430.100	-24.147	
430.200	-29.134	
430.300	-11.463	
430.400	-28.009	
430.500	-27.382	
430.600	-54.241	
430.700	-37.053	
430.800	-41.398	
430.900	-21.810	
431.000	-25.729	
431.100	-34.951	
431.200	-26.184	
431.300	-24.289	
431.400	-17.341	
431.500	-20.365	
431.600	-39.016	
431.700	-38.937	
431.800	-50.955	
431.900	-41.255	
432.000	-27.652	
432.100	-18.501	
432.200	-31.383	
432.300	-34.244	
432.400	-15.467	
432.500	-15.219	
432.600	-15.372	
432.700	-21.670	
432.800	-46.158	
432.900	-16.712	
433.000	-22.645	
433.100	-51.437	
433.200	0.630	
433.300	-23.550	
433.400	-31.445	
433.500	-31.339	
433.600	-9.054	
433.700	-25.547	
433.800	-35.025	
433.900	-17.314	
434.000	-32.935	
434.100	-26.922	
434.200	-37.115	
434.300	-36.178	
434.400	-30.271	
434.500	-35.321	
434.600	-29.186	
434.700	-17.956	
434.800	-31.212	
434.900	-28.346	
435.000	-52.044	
435.100	-6.040	
435.200	-53.505	
435.300	-6.545	
435.400	-44.481	
435.500	-42.497	
435.600	-12.391	
435.700	-34.629	
435.800	-17.542	
435.900	-18.409	
436.000	-22.359	
436.100	-28.016	
436.200	-24.460	
436.300	-30.456	
436.400	-33.898	
436.500	-24.593	
436.600	-9.972	
436.700	-24.609	
436.800	-57.156	
436.900	-8.867	
437.000	-29.565	
437.100	-16.001	
437.200	-10.181	
437.300	-25.652	
437.400	-35.264	
437.500	-36.031	
437.600	-20.354	
437.700	-26.977	
437.800	-22.482	
437.900	-16.678	
438.000	-31.003	
438.100	-36.674	
438.200	-34.061	
438.300	-15.278	
438.400	-29.180	
438.500	-42.819	
438.600	-42.713	
438.700	-23.601	
438.800	-17.045	
438.900	-5.780	
439.000	-35.717	
439.100	-34.842	
439.200	-35.923	
439.300	-25.165	
439.400	-33.132	
439.500	-4.379	
439.600	-22.755	
439.700	-20.877	
439.800	-39.373	
439.900	-32.680	
440.000	-38.695	
440.100	0.346	
440.200	-39.175	
440.300	-27.505	
440.400	-43.300	
440.500	-54.310	
440.600	-6.414	
440.700	-30.795	
440.800	-23.094	
440.900	-14.660	
441.000	-52.641	
441.100	-36.310	
441.200	-14.794	
441.300	-3.256	
441.400	-47.621	
441.500	-16.539	
441.600	-16.105	
441.700	-17.583	
441.800	-22.214	
441.900	-31.674	
442.000	-31.100	
442.100	-26.658	
442.200	-30.336	
442.300	-27.336	
442.400	-28.716	
442.500	-12.964	
442.600	-27.285	
442.700	-36.473	
442.800	-53.856	
442.900	-31.217	
443.000	-10.256	
443.100	-19.637	
443.200	-26.453	
443.300	-20.613	
443.400	-5.352	
443.500	-7.682	
443.600	-11.834	
443.700	-26.386	
443.800	-30.749	
443.900	-39.334	
444.000	-33.663	
444.100	-23.476	
444.200	-20.551	
444.300	-21.945	
444.400	-19.837	
444.500	-22.584	
444.600	-24.701	
444.700	-37.480	
444.800	-8.505	
444.900	-34.244	
445.000	-37.596	
445.100	-30.671	
445.200	-23.683	
445.300	-35.996	
445.400	-18.216	
445.500	-31.321	
445.600	-22.625	
445.700	-25.593	
445.800	-19.587	
445.900	-33.677	
446.000	-3.969	
446.100	-41.859	
446.200	-25.085	
446.300	-12.348	
446.400	-17.933	
446.500	-26.396	
446.600	-29.489	
446.700	-22.346	
446.800	-34.664	
446.900	-19.564	
447.000	-20.488	
447.100	-31.981	
447.200	-34.580	
447.300	-24.986	
447.400	-33.852	
447.500	-20.512	
447.600	-8.303	
447.700	-19.288	
447.800	-14.614	
447.900	-27.080	
448.000	-28.269	
448.100	-25.780	
448.200	-15.404	
448.300	-32.395	
448.400	-30.174	
448.500	-25.587	
448.600	-29.678	
448.700	-24.555	
448.800	-25.064	
448.900	-48.471	
449.000	-40.513	
449.100	-4.224	
449.200	-28.960	
449.300	-29.703	
449.400	-28.979	
449.500	-20.538	
449.600	-45.664	
449.700	-27.741	
449.800	-19.068	
449.900	-11.933	
450.000	-19.926	
450.100	-42.210	
450.200	-33.142	
450.300	-30.255	
450.400	-25.307	
450.500	-21.710	
450.600	-27.746	
450.700	-22.318	
450.800	-32.324	
450.900	-32.437	
451.000	-30.338	
451.100	-21.502	
451.200	-25.012	
451.300	-4.657	
451.400	-14.038	
451.500	-34.853	
451.600	-44.748	
451.700	-35.451	
451.800	-24.967	
451.900	-9.436	
452.000	-33.273	
452.100	-23.844	
452.200	-37.038	
452.300	-16.272	
452.400	-27.738	
452.500	-19.249	
452.600	-51.089	
452.700	-36.825	
452.800	-25.008	
452.900	-48.775	
453.000	1.660	
453.100	-26.811	
453.200	-25.911	
453.300	-15.541	
453.400	-36.685	
453.500	-35.921	
453.600	-1.433	
453.700	-25.153	
453.800	-19.480	
453.900	-32.834	
454.000	-25.957	
454.100	-38.297	
454.200	-12.809	
454.300	-22.939	
454.400	-42.667	
454.500	-12.788	
454.600	-22.537	
454.700	-11.552	
454.800	-10.393	
454.900	-21.605	
455.000	-30.716	
455.100	-34.875	
455.200	-14.595	
455.300	-21.004	
455.400	-31.485	
455.500	-46.022	
455.600	-17.238	
455.700	-26.929	
455.800	-17.041	
455.900	-23.603	
456.000	-11.822	
456.100	-36.140	
456.200	-34.802	
456.300	-34.405	
456.400	-34.169	
456.500	-13.955	
456.600	-27.648	
456.700	-16.907	
456.800	-16.705	
456.900	-14.864	
457.000	-35.531	
457.100	-50.232	
457.200	-15.842	
457.300	-25.172	
457.400	-29.352	
457.500	-39.159	
457.600	-7.828	
457.700	-2.564	
457.800	-16.124	
457.900	-49.683	
458.000	-27.494	
458.100	-21.931	
458.200	-26.116	
458.300	-33.034	
458.400	-1.446	
458.500	-29.901	
458.600	-33.743	
458.700	-8.520	
458.800	-8.871	
458.900	-26.338	
459.000	-25.856	
459.100	-25.687	
459.200	-20.088	
459.300	-45.498	
459.400	4.863	
459.500	-22.410	
459.600	-13.750	
459.700	-33.607	
459.800	-26.088	
459.900	-27.759	
460.000	-36.926	
460.100	-9.738	
460.200	-21.741	
460.300	-24.960	
460.400	-14.369	
460.500	-21.383	
460.600	-26.388	
460.700	-31.167	
460.800	-24.604	
460.900	-40.805	
461.000	-10.713	
461.100	-14.371	
461.200	-33.784	
461.300	-9.402	
461.400	-22.621	
461.500	-25.308	
461.600	-22.278	
461.700	-28.486	
461.800	-16.394	
461.900	-20.114	
462.000	-35.107	
462.100	-30.790	
462.200	-8.065	
462.300	-39.367	
462.400	-20.763	
462.500	-6.341	
462.600	-26.046	
462.700	-19.321	
462.800	-27.501	
462.900	-18.366	
463.000	-36.240	
463.100	-2.933	
463.200	-43.323	
463.300	-33.148	
463.400	-23.327	
463.500	-33.422	
463.600	-30.814	
463.700	-22.536	
463.800	-19.802	
463.900	-25.657	
464.000	-26.484	
464.100	-9.121	
464.200	-14.724	
464.300	-13.621	
464.400	-13.949	
464.500	-0.393	
464.600	-20.531	
464.700	-10.402	
464.800	-30.126	
464.900	-38.835	
465.000	-16.494	
465.100	-25.481	
465.200	-17.402	
465.300	-20.337	
465.400	-14.775	
465.500	-40.686	
465.600	-43.858	
465.700	-15.645	
465.800	-24.269	
465.900	-21.723	
466.000	-7.289	
466.100	-48.779	
466.200	-30.646	
466.300	-26.945	
466.400	-17.770	
466.500	-19.935	
466.600	-51.968	
466.700	-42.034	
466.800	-28.724	
466.900	-38.989	
467.000	-26.858	
467.100	4.014	
467.200	-16.131	
467.300	-33.059	
467.400	-14.012	
467.500	-15.417	
467.600	-38.845	
467.700	-29.287	
467.800	-35.538	
467.900	-29.138	
468.000	-15.801	
468.100	-14.264	
468.200	-12.804	
468.300	-13.396	
468.400	-30.005	
468.500	-34.495	
468.600	-26.931	
468.700	-23.317	
468.800	-30.940	
468.900	-16.139	
469.000	-22.107	
469.100	-29.200	
469.200	-26.245	
469.300	-12.728	
469.400	-27.136	
469.500	-28.549	
469.600	-14.913	
469.700	-41.068	
469.800	-15.493	
469.900	-12.696	
470.000	-18.310	
470.100	-54.436	
470.200	-26.366	
470.300	-30.956	
470.400	-53.586	
470.500	4.919	
470.600	-1.193	
470.700	-38.119	
470.800	-29.055	
470.900	-11.580	
471.000	-25.323	
471.100	-9.084	
471.200	-6.508	
471.300	-23.416	
471.400	-27.829	
471.500	-14.580	
471.600	-24.181	
471.700	-23.013	
471.800	-30.200	
471.900	-28.641	
472.000	-24.672	
472.100	-29.945	
472.200	-10.603	
472.300	-11.682	
472.400	-32.523	
472.500	-15.457	
472.600	-31.082	
472.700	-12.968	
472.800	-10.649	
472.900	-34.619	
473.000	-27.816	
473.100	-21.065	
473.200	-55.893	
473.300	-16.836	
473.400	-15.624	
473.500	2.224	
473.600	-29.226	
473.700	-50.141	
473.800	-34.074	
473.900	-2.083	
474.000	-10.378	
474.100	-17.538	
474.200	-37.600	
474.300	-42.236	
474.400	-20.584	
474.500	12.370	
474.600	-9.310	
474.700	-11.891	
474.800	-27.085	
474.900	-39.499	
475.000	-12.440	
475.100	-12.365	
475.200	-43.101	
475.300	-9.561	
475.400	-29.642	
475.500	-17.611	
475.600	-29.552	
475.700	-31.597	
475.800	2.457	
475.900	-8.277	
476.000	-43.272	
476.100	-31.787	
476.200	-2.446	
476.300	-25.339	
476.400	-6.957	
476.500	-15.825	
476.600	-28.417	
476.700	-44.174	
476.800	5.290	
476.900	-13.641	
477.000	-23.592	
477.100	-30.626	
477.200	-26.316	
477.300	-21.552	
477.400	-7.816	
477.500	-13.997	
477.600	-25.222	
477.700	-34.714	
477.800	-8.710	
477.900	-32.635	
478.000	-25.016	
478.100	-23.306	
478.200	-15.349	
478.300	-21.096	
478.400	-41.414	
478.500	-47.129	
478.600	-27.880	
478.700	-40.820	
478.800	-12.888	
478.900	-43.984	
479.000	-9.289	
479.100	-29.855	
479.200	-36.115	
479.300	-14.820	
479.400	-6.078	
479.500	-27.416	
479.600	-34.796	
479.700	-0.269	
479.800	-2.501	
479.900	-8.304	
480.000	-19.613	
480.100	-19.347	
480.200	-34.499	
480.300	-17.286	
480.400	-9.206	
480.500	-3.034	
480.600	-6.602	
480.700	-4.299	
480.800	-15.269	
480.900	-17.182	
481.000	4.487	
481.100	15.391	
481.200	-7.154	
481.300	5.295	
481.400	11.810	
481.500	19.029	
481.600	21.769	
481.700	9.256	
481.800	-2.734	
481.900	-6.774	
482.000	23.547	
482.100	19.265	
482.200	28.971	
482.300	23.494	
482.400	17.366	
482.500	-3.861	
482.600	7.601	
482.700	41.206	
482.800	15.106	
482.900	0.479	
483.000	-1.117	
483.100	22.736	
483.200	15.620	
483.300	1.702	
483.400	5.451	
483.500	1.764	
483.600	12.148	
483.700	17.747	
483.800	15.499	
483.900	11.265	
484.000	9.459	
484.100	21.444	
484.200	-5.711	
484.300	-0.709	
484.400	-17.621	
484.500	8.404	
484.600	14.403	
484.700	5.613	
484.800	13.764	
484.900	11.540	
485.000	10.642	
485.100	18.954	
485.200	38.423	
485.300	0.593	
485.400	8.615	
485.500	10.345	
485.600	16.690	
485.700	26.874	
485.800	8.807	
485.900	6.333	
486.000	-0.202	
486.100	10.708	
486.200	16.347	
486.300	13.400	
486.400	6.696	
486.500	15.241	
486.600	5.441	
486.700	34.919	
486.800	5.888	
486.900	16.414	
487.000	29.504	
487.100	0.596	
487.200	25.046	
487.300	3.637	
487.400	18.714	
487.500	-3.550	
487.600	21.153	
487.700	7.559	
487.800	19.676	
487.900	26.815	
488.000	21.999	
488.100	15.823	
488.200	19.141	
488.300	-3.937	
488.400	-10.358	
488.500	10.719	
488.600	15.675	
488.700	17.206	
488.800	-8.480	
488.900	21.927	
489.000	24.156	
489.100	4.292	
489.200	21.964	
489.300	26.737	
489.400	17.761	
489.500	24.638	
489.600	28.608	
489.700	12.278	
489.800	33.327	
489.900	23.842	
490.000	-3.595	
490.100	-0.288	
490.200	12.143	
490.300	15.678	
490.400	25.058	
490.500	10.947	
490.600	27.191	
490.700	7.612	
490.800	26.097	
490.900	30.183	
491.000	16.616	
491.100	18.974	
491.200	12.749	
491.300	29.945	
491.400	13.247	
491.500	28.538	
491.600	32.725	
491.700	19.434	
491.800	14.668	
491.900	9.020	
492.000	27.745	
492.100	21.458	
492.200	33.933	
492.300	7.196	
492.400	8.064	
492.500	32.813	
492.600	21.452	
492.700	24.591	
492.800	34.479	
492.900	25.710	
493.000	33.275	
493.100	35.012	
493.200	20.788	
493.300	7.836	
493.400	50.569	
493.500	15.329	
493.600	17.123	
493.700	41.555	
493.800	36.004	
493.900	17.466	
494.000	31.902	
494.100	61.749	
494.200	25.837	
494.300	24.887	
494.400	36.514	
494.500	52.965	
494.600	41.900	
494.700	31.785	
494.800	61.749	
494.900	33.561	
495.000	35.311	
495.100	24.693	
495.200	52.742	
495.300	24.931	
495.400	28.432	
495.500	54.647	
495.600	45.248	
495.700	47.593	
495.800	48.453	
495.900	26.762	
496.000	41.735	
496.100	44.236	
496.200	54.272	
496.300	48.852	
496.400	34.108	
496.500	50.214	
496.600	56.064	
496.700	52.612	
496.800	44.606	
496.900	52.086	
497.000	68.671	
497.100	36.449	
497.200	47.089	
497.300	51.196	
497.400	52.918	
497.500	27.086	
497.600	52.772	
497.700	48.247	
497.800	74.207	
497.900	63.007	
498.000	61.681	
498.100	70.569	
498.200	41.776	
498.300	31.643	
498.400	70.564	
498.500	75.666	
498.600	64.634	
498.700	54.621	
498.800	47.423	
498.900	55.764	
499.000	72.885	
499.100	64.760	
499.200	73.257	
499.300	40.913	
499.400	65.331	
499.500	46.097	
499.600	77.217	
499.700	51.535	
499.800	75.890	
499.900	66.798	
500.000	55.931	
500.100	55.481	
500.200	80.464	
500.300	70.883	
500.400	36.285	
500.500	71.996	
500.600	60.145	
500.700	46.556	
500.800	75.670	
500.900	70.921	
501.000	57.871	
501.100	54.797	
501.200	70.031	
501.300	51.373	
501.400	71.840	
501.500	75.311	
501.600	73.928	
501.700	71.101	
501.800	66.533	
501.900	54.683	
502.000	59.152	
502.100	67.966	
502.200	57.285	
502.300	49.870	
502.400	52.850	
502.500	48.608	
502.600	66.793	
502.700	59.187	
502.800	78.318	
502.900	59.614	
503.000	48.019	
503.100	64.260	
503.200	82.272	
503.300	71.284	
503.400	53.583	
503.500	53.616	
503.600	47.855	
503.700	83.031	
503.800	83.241	
503.900	59.605	
504.000	51.189	
504.100	61.631	
504.200	67.929	
504.300	50.821	
504.400	65.233	
504.500	63.408	
504.600	59.279	
504.700	51.851	
504.800	60.894	
504.900	65.144	
505.000	42.992	
505.100	72.032	
505.200	71.709	
505.300	72.210	
505.400	72.984	
505.500	50.481	
505.600	65.983	
505.700	73.357	
505.800	75.906	
505.900	61.347	
506.000	40.141	
506.100	62.591	
506.200	55.022	
506.300	70.034	
506.400	70.412	
506.500	72.853	
506.600	69.170	
506.700	69.351	
506.800	67.566	
506.900	74.553	
507.000	39.353	
507.100	52.211	
507.200	64.071	
507.300	46.550	
507.400	69.165	
507.500	39.684	
507.600	58.268	
507.700	65.716	
507.800	86.794	
507.900	65.243	
508.000	76.447	
508.100	59.972	
508.200	49.537	
508.300	59.687	
508.400	60.296	
508.500	62.412	
508.600	75.221	
508.700	73.832	
508.800	76.784	
508.900	58.592	
509.000	73.093	
509.100	56.762	
509.200	68.871	
509.300	67.707	
509.400	51.412	
509.500	32.568	
509.600	63.169	
509.700	85.589	
509.800	54.159	
509.900	31.326	
510.000	67.870	
510.100	72.934	
510.200	61.032	
510.300	64.735	
510.400	65.975	
510.500	51.787	
510.600	63.526	
510.700	63.961	
510.800	72.570	
510.900	67.400	
511.000	48.164	
511.100	59.523	
511.200	56.200	
511.300	65.246	
511.400	81.366	
511.500	57.209	
511.600	45.168	
511.700	59.798	
511.800	74.260	
511.900	47.688	
512.000	53.473	
512.100	61.083	
512.200	59.105	
512.300	66.409	
512.400	55.516	
512.500	58.400	
512.600	61.560	
512.700	58.942	
512.800	68.602	
512.900	61.474	
513.000	68.823	
513.100	55.778	
513.200	31.837	
513.300	63.266	
513.400	52.448	
513.500	65.631	
513.600	81.766	
513.700	58.242	
513.800	92.694	
513.900	78.591	
514.000	62.702	
514.100	36.851	
514.200	53.593	
514.300	60.832	
514.400	72.387	
514.500	45.554	
514.600	57.333	
514.700	63.822	
514.800	64.851	
514.900	63.020	
515.000	56.241	
515.100	48.265	
515.200	46.906	
515.300	65.008	
515.400	67.002	
515.500	70.390	
515.600	65.211	
515.700	66.223	
515.800	52.011	
515.900	50.335	
516.000	47.985	
516.100	69.617	
516.200	67.049	
516.300	39.195	
516.400	49.886	
516.500	67.563	
516.600	41.112	
516.700	75.300	
516.800	46.470	
516.900	64.364	
517.000	59.007	
517.100	47.859	
517.200	71.928	
517.300	67.959	
517.400	43.774	
517.500	60.242	
517.600	40.778	
517.700	64.535	
517.800	74.193	
517.900	56.982	
518.000	39.615	
518.100	56.686	
518.200	61.711	
518.300	42.519	
518.400	72.666	
518.500	61.880	
518.600	45.725	
518.700	48.858	
518.800	62.624	
518.900	65.482	
519.000	65.280	
519.100	56.164	
519.200	38.891	
519.300	52.703	
519.400	43.838	
519.500	63.061	
519.600	66.101	
519.700	76.992	
519.800	29.762	
519.900	40.966	
520.000	53.053	
520.100	46.873	
520.200	66.485	
520.300	52.060	
520.400	44.167	
520.500	54.241	
520.600	45.002	
520.700	68.750	
520.800	53.355	
520.900	59.457	
521.000	45.458	
521.100	51.612	
521.200	58.389	
521.300	62.620	
521.400	50.689	
521.500	39.298	
521.600	55.146	
521.700	47.389	
521.800	61.499	
521.900	57.435	
522.000	61.070	
522.100	57.927	
522.200	44.408	
522.300	56.014	
522.400	51.210	
522.500	49.915	
522.600	62.563	
522.700	61.159	
522.800	61.223	
522.900	43.797	
523.000	69.911	
523.100	64.902	
523.200	51.601	
523.300	44.519	
523.400	48.921	
523.500	43.060	
523.600	73.593	
523.700	59.879	
523.800	49.108	
523.900	44.942	
524.000	52.900	
524.100	28.905	
524.200	67.051	
524.300	60.139	
524.400	50.124	
524.500	55.465	
524.600	44.776	
524.700	64.568	
524.800	47.080	
524.900	42.814	
525.000	57.787	
525.100	50.859	
525.200	51.847	
525.300	59.603	
525.400	65.374	
525.500	38.120	
525.600	71.319	
525.700	41.997	
525.800	58.791	
525.900	57.059	
526.000	57.010	
526.100	50.564	
526.200	63.026	
526.300	41.850	
526.400	69.404	
526.500	47.733	
526.600	63.465	
526.700	43.694	
526.800	46.937	
526.900	61.120	
527.000	42.085	
527.100	64.196	
527.200	51.363	
527.300	52.203	
527.400	60.439	
527.500	34.792	
527.600	59.013	
527.700	43.410	
527.800	54.093	
527.900	45.187	
528.000	49.542	
528.100	32.730	
528.200	65.388	
528.300	75.348	
528.400	67.916	
528.500	30.146	
528.600	39.327	
528.700	40.981	
528.800	37.496	
528.900	53.689	
529.000	64.809	
529.100	51.606	
529.200	23.236	
529.300	49.057	
529.400	55.963	
529.500	62.442	
529.600	64.569	
529.700	55.719	
529.800	47.765	
529.900	52.493	
530.000	41.029	
530.100	59.414	
530.200	66.112	
530.300	61.357	
530.400	40.028	
530.500	73.418	
530.600	25.355	
530.700	53.227	
530.800	50.213	
530.900	41.495	
531.000	21.122	
531.100	67.109	
531.200	38.598	
531.300	66.439	
531.400	59.372	
531.500	55.714	
531.600	33.990	
531.700	45.313	
531.800	54.682	
531.900	70.562	
532.000	56.711	
532.100	25.588	
532.200	31.015	
532.300	63.340	
532.400	51.196	
532.500	45.080	
532.600	47.543	
532.700	62.294	
532.800	51.934	
532.900	46.680	
533.000	55.496	
533.100	31.897	
533.200	42.365	
533.300	41.729	
533.400	46.124	
533.500	39.329	
533.600	46.891	
533.700	38.630	
533.800	52.940	
533.900	61.800	
534.000	51.543	
534.100	35.953	
534.200	74.981	
534.300	54.382	
534.400	30.914	
534.500	52.484	
534.600	63.575	
534.700	46.643	
534.800	52.894	
534.900	49.493	
535.000	54.709	
535.100	42.370	
535.200	54.519	
535.300	49.985	
535.400	51.149	
535.500	46.647	
535.600	43.854	
535.700	28.412	
535.800	46.028	
535.900	53.099	
536.000	63.007	
536.100	43.690	
536.200	17.969	
536.300	40.762	
536.400	45.212	
536.500	67.363	
536.600	42.751	
536.700	53.913	
536.800	57.951	
536.900	44.943	
537.000	48.146	
537.100	47.636	
537.200	63.626	
537.300	23.248	
537.400	61.533	
537.500	43.073	
537.600	28.200	
537.700	70.258	
537.800	45.448	
537.900	63.230	
538.000	41.573	
538.100	27.722	
538.200	38.225	
538.300	38.102	
538.400	31.341	
538.500	72.609	
538.600	41.465	
538.700	47.085	
538.800	54.657	
538.900	51.011	
539.000	40.091	
539.100	49.003	
539.200	58.879	
539.300	55.713	
539.400	49.324	
539.500	49.268	
539.600	50.131	
539.700	42.822	
539.800	45.065	
539.900	44.669	
540.000	65.981	
540.100	31.753	
540.200	33.725	
540.300	48.347	
540.400	35.137	
540.500	43.136	
540.600	44.296	
540.700	28.361	
540.800	57.927	
540.900	26.020	
541.000	32.041	
541.100	20.038	
541.200	61.624	
541.300	19.261	
541.400	16.196	
541.500	28.901	
541.600	22.400	
541.700	32.157	
541.800	6.841	
541.900	7.098	
542.000	24.362	
542.100	31.447	
542.200	22.826	
542.300	18.675	
542.400	24.639	
542.500	10.064	
542.600	6.071	
542.700	-14.762	
542.800	18.783	
542.900	-2.258	
543.000	42.959	
543.100	11.820	
543.200	-4.612	
543.300	18.354	
543.400	-13.407	
543.500	15.927	
543.600	10.500	
543.700	-7.697	
543.800	-19.561	
543.900	3.196	
544.000	20.998	
544.100	0.608	
544.200	11.497	
544.300	-18.717	
544.400	-17.251	
544.500	-5.516	
544.600	-1.396	
544.700	23.466	
544.800	9.609	
544.900	8.581	
545.000	-11.808	
545.100	3.259	
545.200	-15.321	
545.300	20.592	
545.400	4.107	
545.500	-4.751	
545.600	-12.934	
545.700	-0.490	
545.800	9.745	
545.900	-5.159	
546.000	-20.797	
546.100	-7.819	
546.200	11.118	
546.300	-1.829	
546.400	12.261	
546.500	-1.833	
546.600	-2.463	
546.700	-12.399	
546.800	-6.063	
546.900	-22.408	
547.000	1.691	
547.100	-21.898	
547.200	-11.135	
547.300	-13.186	
547.400	-18.476	
547.500	-6.251	
547.600	0.756	
547.700	-5.062	
547.800	-4.639	
547.900	-18.472	
548.000	-16.593	
548.100	2.088	
548.200	-20.983	
548.300	-11.002	
548.400	-3.580	
548.500	-10.095	
548.600	-20.274	
548.700	13.457	
548.800	0.600	
548.900	-33.951	
549.000	-5.867	
549.100	2.143	
549.200	-12.380	
549.300	-14.656	
549.400	-9.900	
549.500	-22.728	
549.600	1.093	
549.700	-37.623	
549.800	-1.303	
549.900	5.157	
550.000	-13.284	
550.100	-8.339	
550.200	-15.327	
550.300	-34.468	
550.400	-1.878	
550.500	-8.749	
550.600	-18.539	
550.700	-15.659	
550.800	-33.912	
550.900	-9.286	
551.000	-11.215	
551.100	-6.290	
551.200	-7.747	
551.300	-21.211	
551.400	-20.667	
551.500	-30.012	
551.600	-4.918	
551.700	-14.281	
551.800	-22.764	
551.900	-15.790	
552.000	-34.638	
552.100	-26.525	
552.200	-18.666	
552.300	-17.750	
552.400	-21.547	
552.500	-17.169	
552.600	-19.633	
552.700	-28.465	
552.800	-2.278	
552.900	-23.396	
553.000	3.339	
553.100	-29.595	
553.200	-21.566	
553.300	-24.049	
553.400	-10.689	
553.500	8.719	
553.600	-20.897	
553.700	-9.727	
553.800	-45.645	
553.900	-26.117	
554.000	-6.163	
554.100	-18.364	
554.200	-21.598	
554.300	-14.571	
554.400	-23.710	
554.500	-27.680	
554.600	-10.098	
554.700	-17.215	
554.800	-37.401	
554.900	-35.259	
555.000	-26.133	
555.100	-28.545	
555.200	-16.778	
555.300	-10.311	
555.400	-26.410	
555.500	-35.848	
555.600	-14.741	
555.700	-9.109	
555.800	-36.410	
555.900	-4.139	
556.000	-43.099	
556.100	-27.064	
556.200	-27.158	
556.300	-17.744	
556.400	-26.327	
556.500	-3.029	
556.600	-38.201	
556.700	-19.854	
556.800	-32.667	
556.900	-21.444	
557.000	-21.584	
557.100	-44.621	
557.200	-45.017	
557.300	-34.267	
557.400	-8.995	
557.500	2.332	
557.600	-26.851	
557.700	-22.627	
557.800	-43.784	
557.900	-42.071	
558.000	-23.333	
558.100	-26.490	
558.200	-28.170	
558.300	-32.906	
558.400	-13.139	
558.500	-37.004	
558.600	-33.069	
558.700	-24.019	
558.800	-17.039	
558.900	-40.272	
559.000	-18.306	
559.100	-30.505	
559.200	-8.576	
559.300	-38.150	
559.400	-21.864	
559.500	-41.758	
559.600	-21.172	
559.700	-27.652	
559.800	-21.640	
559.900	-14.509	
560.000	-22.332	
560.100	-52.933	
560.200	-25.446	
560.300	-32.151	
560.400	-46.021	
560.500	-15.474	
560.600	-26.376	
560.700	-35.495	
560.800	-26.546	
560.900	-40.448	
561.000	-24.535	
561.100	-29.618	
561.200	-29.483	
561.300	-38.711	
561.400	-50.364	
561.500	-30.705	
561.600	-14.541	
561.700	-13.654	
561.800	-26.972	
561.900	-27.921	
562.000	-23.130	
562.100	-22.871	
562.200	-24.547	
562.300	-28.899	
562.400	-30.778	
562.500	-47.412	
562.600	-27.163	
562.700	-45.375	
562.800	-22.320	
562.900	-28.503	
563.000	-9.929	
563.100	-54.734	
563.200	-13.178	
563.300	-27.005	
563.400	-23.572	
563.500	-43.214	
563.600	-31.163	
563.700	-50.474	
563.800	-18.092	
563.900	-14.805	
564.000	-12.850	
564.100	-34.178	
564.200	-35.541	
564.300	-55.110	
564.400	-22.755	
564.500	-32.214	
564.600	-25.282	
564.700	-27.455	
564.800	-32.676	
564.900	-32.257	
565.000	-34.319	
565.100	-30.692	
565.200	-32.427	
565.300	-17.245	
565.400	-37.831	
565.500	-37.167	
565.600	-3.251	
565.700	-25.932	
565.800	-44.862	
565.900	-21.715	
566.000	-23.446	
566.100	-30.680	
566.200	-29.339	
566.300	-35.908	
566.400	-9.336	
566.500	-31.293	
566.600	-49.687	
566.700	-23.223	
566.800	-35.795	
566.900	-16.945	
567.000	-31.494	
567.100	-39.005	
567.200	-27.368	
567.300	-47.485	
567.400	-36.657	
567.500	-3.644	
567.600	-35.576	
567.700	-40.504	
567.800	-29.779	
567.900	-36.004	
568.000	-37.316	
568.100	-33.848	
568.200	-37.818	
568.300	-26.252	
568.400	-29.343	
568.500	-33.547	
568.600	-31.559	
568.700	-16.464	
568.800	-23.278	
568.900	-23.136	
569.000	-18.774	
569.100	-16.499	
569.200	-53.590	
569.300	-45.671	
569.400	-8.878	
569.500	-26.579	
569.600	-35.933	
569.700	-40.027	
569.800	-27.585	
569.900	-16.552	
570.000	-8.187	
570.100	-49.922	
570.200	-14.826	
570.300	-28.125	
570.400	0.371	
570.500	-16.939	
570.600	-36.115	
570.700	-31.885	
570.800	-32.355	
570.900	-26.658	
571.000	-2.716	
571.100	-36.952	
571.200	-39.269	
571.300	-19.914	
571.400	-41.028	
571.500	-37.997	
571.600	-11.735	
571.700	-44.109	
571.800	-42.715	
571.900	-30.448	
572.000	-33.028	
572.100	-12.488	
572.200	-13.506	
572.300	-24.632	
572.400	-19.837	
572.500	-37.184	
572.600	-7.772	
572.700	-54.582	
572.800	-36.215	
572.900	-8.531	
573.000	-38.191	
573.100	-3.453	
573.200	-25.170	
573.300	-23.619	
573.400	-31.463	
573.500	-1.206	
573.600	-41.525	
573.700	-35.522	
573.800	-19.223	
573.900	-43.097	
574.000	-15.281	
574.100	-28.446	
574.200	-17.160	
574.300	-46.017	
574.400	-34.437	
574.500	-25.374	
574.600	-45.015	
574.700	-59.037	
574.800	-24.228	
574.900	-4.701	
575.000	-6.661	
575.100	-43.980	
575.200	-32.553	
575.300	-32.120	
575.400	-38.137	
575.500	-20.799	
575.600	-24.821	
575.700	-33.738	
575.800	-32.289	
575.900	-19.287	
576.000	-26.718	
576.100	-45.143	
576.200	-29.070	
576.300	-31.757	
576.400	-19.924	
576.500	-41.445	
576.600	-28.343	
576.700	-24.412	
576.800	-20.490	
576.900	-34.236	
577.000	-15.832	
577.100	-29.748	
577.200	-39.394	
577.300	-37.719	
577.400	-23.677	
577.500	-10.976	
577.600	-36.594	
577.700	-23.294	
577.800	-28.775	
577.900	-13.123	
578.000	-20.319	
578.100	-14.615	
578.200	-39.087	
578.300	-46.337	
578.400	-30.848	
578.500	-21.841	
578.600	-16.683	
578.700	-33.556	
578.800	-52.701	
578.900	-40.203	
579.000	-10.933	
579.100	-30.343	
579.200	-16.090	
579.300	-31.109	
579.400	-29.723	
579.500	-32.943	
579.600	-26.296	
579.700	-19.997	
579.800	-23.682	
579.900	-41.250	
580.000	-23.421	
580.100	-48.895	
580.200	-8.031	
580.300	5.903	
580.400	-42.691	
580.500	-29.724	
580.600	-43.328	
580.700	-14.976	
580.800	-41.301	
580.900	-31.734	
581.000	-26.695	
581.100	-17.858	
581.200	-31.335	
581.300	-27.811	
581.400	-13.884	
581.500	-2.399	
581.600	-28.337	
581.700	-37.146	
581.800	-38.568	
581.900	-31.167	
582.000	-26.212	
582.100	-28.550	
582.200	-49.779	
582.300	-19.790	
582.400	-28.919	
582.500	-50.306	
582.600	-7.551	
582.700	-21.050	
582.800	-32.453	
582.900	-18.588	
583.000	-50.014	
583.100	-37.768	
583.200	-16.944	
583.300	-29.069	
583.400	-35.397	
583.500	-36.503	
583.600	-15.601	
583.700	-36.321	
583.800	-20.830	
583.900	-34.739	
584.000	-27.963	
584.100	-52.646	
584.200	-7.390	
584.300	-7.151	
584.400	-19.248	
584.500	-39.903	
584.600	-27.688	
584.700	-31.181	
584.800	-19.194	
584.900	-25.789	
585.000	-3.291	
585.100	-20.569	
585.200	-24.102	
585.300	-61.989	
585.400	-20.272	
585.500	-43.135	
585.600	-9.998	
585.700	-19.388	
585.800	-30.644	
585.900	-41.734	
586.000	-32.518	
586.100	-29.896	
586.200	-9.193	
586.300	-39.973	
586.400	-36.256	
586.500	-21.372	
586.600	-33.222	
586.700	2.946	
586.800	-27.057	
586.900	-34.015	
587.000	-43.422	
587.100	-35.027	
587.200	-23.439	
587.300	-17.196	
587.400	-32.143	
587.500	-25.698	
587.600	-46.507	
587.700	-22.093	
587.800	-33.256	
587.900	-4.717	
588.000	-23.356	
588.100	-45.423	
588.200	-14.462	
588.300	-15.224	
588.400	-36.073	
588.500	-38.893	
588.600	-8.894	
588.700	-41.808	
588.800	-18.557	
588.900	-26.761	
589.000	-11.225	
589.100	-26.390	
589.200	-32.686	
589.300	-29.806	
589.400	-21.444	
589.500	-46.588	
589.600	-18.335	
589.700	-16.975	
589.800	-32.873	
589.900	-30.191	
590.000	-47.147	
590.100	-36.987	
590.200	-36.789	
590.300	-18.600	
590.400	-31.868	
590.500	-13.398	
590.600	-43.313	
590.700	-35.305	
590.800	-9.831	
590.900	-9.921	
591.000	-40.249	
591.100	-27.347	
591.200	-32.195	
591.300	-23.887	
591.400	-9.013	
591.500	-29.782	
591.600	-35.981	
591.700	-25.451	
591.800	-22.148	
591.900	-17.903	
592.000	-1.336	
592.100	-22.274	
592.200	-27.493	
592.300	-40.443	
592.400	-28.330	
592.500	-14.723	
592.600	-5.173	
592.700	-36.534	
592.800	-44.042	
592.900	-24.593	
593.000	-15.635	
593.100	-43.359	
593.200	-12.088	
593.300	-28.069	
593.400	-43.539	
593.500	-36.604	
593.600	-17.576	
593.700	-18.539	
593.800	-37.774	
593.900	-30.848	
594.000	-43.894	
594.100	-37.989	
594.200	-16.410	
594.300	-24.167	
594.400	-46.343	
594.500	-28.053	
594.600	-6.638	
594.700	-11.088	
594.800	-29.781	
594.900	-36.463	
595.000	-18.911	
595.100	-36.480	
595.200	-19.185	
595.300	-34.068	
595.400	-11.131	
595.500	-6.553	
595.600	-36.213	
595.700	-9.375	
595.800	-27.307	
595.900	-44.071	
596.000	-30.412	
596.100	-7.433	
596.200	-18.725	
596.300	-47.638	
596.400	-30.375	
596.500	-19.644	
596.600	-16.884	
596.700	-17.992	
596.800	-37.600	
596.900	-36.752	
597.000	-44.813	
597.100	-1.909	
597.200	-22.671	
597.300	-16.899	
597.400	-35.082	
597.500	-33.558	
597.600	-35.897	
597.700	-21.986	
597.800	-5.954	
597.900	-30.655	
598.000	-19.215	
598.100	-30.121	
598.200	-15.831	
598.300	-38.049	
598.400	-21.644	
598.500	-13.250	
598.600	-35.421	
598.700	-32.619	
598.800	-31.961	
598.900	-5.185	
599.000	-9.340	
599.100	-48.239	
599.200	-28.690	
599.300	-32.433	
599.400	-26.368	
599.500	-24.246	
599.600	-44.634	
599.700	-21.588	
599.800	-23.682	
599.900	-22.669	
600.000	-34.701	
600.100	-21.881	
600.200	-21.925	
600.300	-26.670	
600.400	-39.022	
600.500	-29.617	
600.600	-21.091	
600.700	-18.354	
600.800	-34.622	
600.900	-24.716	
601.000	-22.813	
601.100	-10.859	
601.200	-24.509	
601.300	-46.425	
601.400	-14.743	
601.500	-15.320	
601.600	-29.264	
601.700	-40.490	
601.800	-23.270	
601.900	-26.650	
602.000	-36.030	
602.100	-18.491	
602.200	-29.904	
602.300	-17.041	
602.400	-18.275	
602.500	-36.529	
602.600	-25.354	
602.700	-20.017	
602.800	-16.219	
602.900	-34.713	
603.000	-18.915	
603.100	-19.843	
603.200	-17.236	
603.300	-24.697	
603.400	-35.321	
603.500	-53.683	
603.600	-12.903	
603.700	-6.537	
603.800	-16.191	
603.900	-34.293	
604.000	-25.993	
604.100	-6.740	
604.200	3.483	
604.300	-13.000	
604.400	-25.281	
604.500	-14.313	
604.600	-22.474	
604.700	-36.353	
604.800	-24.014	
604.900	-22.423	
605.000	-0.572	
605.100	-58.226	
605.200	-36.556	
605.300	-7.773	
605.400	-24.586	
605.500	-24.051	
605.600	-49.178	
605.700	-10.393	
605.800	-13.183	
605.900	-21.259	
606.000	-23.038	
606.100	-11.537	
606.200	-24.952	
606.300	-47.823	
606.400	-17.613	
606.500	-38.681	
606.600	-24.387	
606.700	-2.754	
606.800	-25.009	
606.900	-43.523	
607.000	-23.589	
607.100	-21.435	
607.200	-31.296	
607.300	-33.211	
607.400	-36.766	
607.500	-21.396	
607.600	-16.431	
607.700	-23.565	
607.800	-30.973	
607.900	-21.550	
608.000	-22.708	
608.100	-44.101	
608.200	-19.475	
608.300	-0.133	
608.400	-14.809	
608.500	-22.504	
608.600	-20.131	
608.700	-46.609	
608.800	-31.270	
608.900	-22.357	
609.000	-10.855	
609.100	-24.673	
609.200	-12.827	
609.300	-23.932	
609.400	-37.358	
609.500	-17.403	
609.600	-28.680	
609.700	-39.270	
609.800	-28.109	
609.900	-33.729	
610.000	-18.517	
610.100	-20.514	
610.200	-16.886	
610.300	-24.298	
610.400	-23.436	
610.500	-27.579	
610.600	-23.915	
610.700	-12.951	
610.800	-20.645	
610.900	-32.066	
611.000	-35.125	
611.100	-26.436	
611.200	4.178	
611.300	-39.688	
611.400	-18.349	
611.500	-23.074	
611.600	-46.472	
611.700	-26.666	
611.800	-5.166	
611.900	-19.764	
612.000	-13.525	
612.100	-13.825	
612.200	-36.290	
612.300	-16.305	
612.400	-14.275	
612.500	-21.200	
612.600	-29.832	
612.700	-0.686	
612.800	-16.144	
612.900	-32.131	
613.000	-29.787	
613.100	-40.557	
613.200	-23.479	
613.300	-6.038	
613.400	-21.225	
613.500	-23.636	
613.600	-50.756	
613.700	-34.477	
613.800	-13.129	
613.900	-21.999	
614.000	-34.561	
614.100	-16.091	
614.200	-7.969	
614.300	-16.126	
614.400	-45.017	
614.500	-33.322	
614.600	-34.888	
614.700	-15.397	
614.800	-28.086	
614.900	-34.092	
615.000	-35.468	
615.100	-45.542	
615.200	-20.757	
615.300	-4.332	
615.400	-35.246	
615.500	-26.871	
615.600	-32.098	
615.700	-26.486	
615.800	-12.147	
615.900	-35.261	
616.000	-28.338	
616.100	-37.294	
616.200	-25.543	
616.300	-12.846	
616.400	-23.171	
616.500	-19.174	
616.600	-37.723	
616.700	-11.365	
616.800	-21.361	
616.900	-20.589	
617.000	-16.763	
617.100	-10.877	
617.200	-23.630	
617.300	-16.214	
617.400	-46.301	
617.500	-10.173	
617.600	-27.183	
617.700	1.292	
617.800	-18.429	
617.900	-10.547	
618.000	-36.673	
618.100	-32.113	
618.200	-39.794	
618.300	-23.281	
618.400	-20.661	
618.500	-19.650	
618.600	-21.157	
618.700	-26.344	
618.800	-11.111	
618.900	-18.984	
619.000	-18.740	
619.100	-48.833	
619.200	-32.806	
619.300	-16.549	
619.400	-2.618	
619.500	-7.992	
619.600	-35.404	
619.700	-27.059	
619.800	-43.322	
619.900	-30.996	
620.000	-21.010	
620.100	-18.168	
620.200	-20.028	
620.300	-36.021	
620.400	-28.350	
620.500	-37.575	
620.600	-21.364	
620.700	-12.332	
620.800	-36.384	
620.900	-23.906	
621.000	-21.225	
621.100	-6.284	
621.200	-6.550	
621.300	-19.241	
621.400	-19.784	
621.500	-24.082	
621.600	-17.961	
621.700	-18.057	
621.800	-10.571	
621.900	-6.798	
622.000	-46.075	
622.100	-39.268	
622.200	-26.481	
622.300	-29.525	
622.400	-20.034	
622.500	-2.679	
622.600	-13.060	
622.700	-34.482	
622.800	-18.559	
622.900	-13.911	
623.000	-18.593	
623.100	-29.683	
623.200	-43.549	
623.300	-23.529	
623.400	-25.591	
623.500	-27.777	
623.600	-16.643	
623.700	-11.772	
623.800	-9.901	
623.900	-38.253	
624.000	-25.404	
624.100	-2.051	
624.200	-32.151	
624.300	-24.821	
624.400	-30.134	
624.500	-13.900	
624.600	-0.488	
624.700	-32.160	
624.800	-8.687	
624.900	-28.143	
625.000	-39.160	
625.100	-30.657	
625.200	-8.738	
625.300	2.418	
625.400	-2.252	
625.500	-25.718	
625.600	-37.066	
625.700	-22.234	
625.800	-15.026	
625.900	-34.250	
626.000	-25.495	
626.100	-16.267	
626.200	-33.057	
626.300	-17.546	
626.400	-18.779	
626.500	-12.276	
626.600	-19.920	
626.700	-19.387	
626.800	-42.223	
626.900	-15.011	
627.000	-18.019	
627.100	-5.481	
627.200	-27.679	
627.300	-33.973	
627.400	-37.691	
627.500	-20.807	
627.600	-1.270	
627.700	-13.516	
627.800	-26.645	
627.900	-31.727	
628.000	-7.255	
628.100	-12.420	
628.200	-14.077	
628.300	-43.783	
628.400	-40.212	
628.500	-26.165	
628.600	-36.070	
628.700	-9.196	
628.800	-7.373	
628.900	-12.471	
629.000	-31.165	
629.100	-30.092	
629.200	-37.437	
629.300	-21.064	
629.400	-8.544	
629.500	5.303	
629.600	-34.114	
629.700	-35.223	
629.800	-21.128	
629.900	-18.688	
630.000	-26.670	
630.100	-48.056	
630.200	-31.456	
630.300	-26.668	
630.400	2.240	
630.500	1.388	
630.600	-5.925	
630.700	-5.690	
630.800	-13.303	
630.900	-15.130	
631.000	23.500	
631.100	0.103	
631.200	0.568	
631.300	4.861	
631.400	9.968	
631.500	5.811	
631.600	25.242	
631.700	15.313	
631.800	14.941	
631.900	6.577	
632.000	11.341	
632.100	2.448	
632.200	23.065	
632.300	21.807	
632.400	14.256	
632.500	26.527	
632.600	20.988	
632.700	3.757	
632.800	10.937	
632.900	0.336	
633.000	25.605	
633.100	1.563	
633.200	2.697	
633.300	7.277	
633.400	25.359	
633.500	12.890	
633.600	11.645	
633.700	10.315	
633.800	0.156	
633.900	8.910	
634.000	27.245	
634.100	26.851	
634.200	-16.728	
634.300	10.716	
634.400	22.110	
634.500	4.955	
634.600	33.787	
634.700	13.947	
634.800	16.237	
634.900	2.087	
635.000	13.858	
635.100	11.739	
635.200	2.915	
635.300	13.781	
635.400	13.888	
635.500	15.668	
635.600	18.036	
635.700	6.178	
635.800	18.605	
635.900	15.222	
636.000	14.787	
636.100	9.649	
636.200	9.091	
636.300	16.979	
636.400	8.134	
636.500	12.013	
636.600	10.230	
636.700	6.133	
636.800	-0.467	
636.900	15.878	
637.000	18.427	
637.100	2.719	
637.200	8.148	
637.300	-2.351	
637.400	22.978	
637.500	9.172	
637.600	24.816	
637.700	18.464	
637.800	0.023	
637.900	16.006	
638.000	16.141	
638.100	16.572	
638.200	17.035	
638.300	10.273	
638.400	15.630	
638.500	13.444	
638.600	9.350	
638.700	29.708	
638.800	8.209	
638.900	38.724	
639.000	1.805	
639.100	5.035	
639.200	6.169	
639.300	25.981	
639.400	11.042	
639.500	-2.748	
639.600	9.784	
639.700	26.756	
639.800	22.578	
639.900	22.810	
640.000	-0.536	
640.100	1.152	
640.200	38.610	
640.300	29.624	
640.400	23.741	
640.500	24.199	
640.600	9.864	
640.700	25.880	
640.800	20.229	
640.900	19.661	
641.000	19.710	
641.100	21.839	
641.200	26.565	
641.300	14.669	
641.400	0.174	
641.500	3.964	
641.600	40.126	
641.700	35.253	
641.800	11.767	
641.900	-8.479	
642.000	24.180	
642.100	30.320	
642.200	27.414	
642.300	34.428	
642.400	11.649	
642.500	13.182	
642.600	36.996	
642.700	38.632	
642.800	35.672	
642.900	36.780	
643.000	22.574	
643.100	6.109	
643.200	14.376	
643.300	31.789	
643.400	40.933	
643.500	30.189	
643.600	27.461	
643.700	-1.815	
643.800	51.139	
643.900	44.668	
644.000	34.792	
644.100	27.413	
644.200	54.191	
644.300	39.468	
644.400	30.046	
644.500	36.400	
644.600	43.343	
644.700	35.942	
644.800	9.649	
644.900	13.987	
645.000	44.805	
645.100	43.985	
645.200	53.321	
645.300	34.420	
645.400	36.279	
645.500	39.732	
645.600	22.584	
645.700	74.380	
645.800	55.672	
645.900	39.731	
646.000	19.168	
646.100	50.680	
646.200	41.525	
646.300	32.457	
646.400	67.101	
646.500	54.578	
646.600	43.363	
646.700	41.586	
646.800	33.199	
646.900	55.483	
647.000	54.130	
647.100	37.395	
647.200	43.313	
647.300	36.706	
647.400	52.726	
647.500	75.793	
647.600	70.392	
647.700	28.155	
647.800	44.453	
647.900	68.735	
648.000	47.609	
648.100	78.349	
648.200	54.212	
648.300	57.191	
648.400	67.852	
648.500	55.565	
648.600	70.221	
648.700	70.230	
648.800	65.057	
648.900	61.015	
649.000	71.427	
649.100	56.103	
649.200	59.341	
649.300	53.687	
649.400	70.755	
649.500	68.513	
649.600	48.710	
649.700	73.495	
649.800	66.264	
649.900	55.244	
650.000	41.910	
650.100	39.839	
650.200	71.820	
650.300	79.917	
650.400	70.568	
650.500	74.093	
650.600	53.034	
650.700	51.756	
650.800	57.747	
650.900	52.370	
651.000	56.689	
651.100	78.563	
651.200	54.577	
651.300	61.570	
651.400	71.570	
651.500	55.866	
651.600	50.688	
651.700	66.639	
651.800	61.608	
651.900	61.916	
652.000	74.483	
652.100	74.582	
652.200	44.552	
652.300	65.071	
652.400	65.532	
652.500	33.373	
652.600	73.629	
652.700	61.203	
652.800	65.502	
652.900	60.879	
653.000	57.097	
653.100	64.240	
653.200	49.507	
653.300	79.462	
653.400	48.286	
653.500	61.004	
653.600	81.589	
653.700	61.244	
653.800	55.456	
653.900	63.355	
654.000	73.421	
654.100	73.256	
654.200	41.739	
654.300	57.417	
654.400	71.734	
654.500	69.905	
654.600	48.676	
654.700	63.795	
654.800	52.304	
654.900	52.287	
655.000	46.846	
655.100	84.297	
655.200	62.508	
655.300	55.947	
655.400	51.920	
655.500	76.772	
655.600	64.793	
655.700	73.549	
655.800	61.552	
655.900	59.785	
656.000	54.038	
656.100	81.939	
656.200	79.472	
656.300	71.342	
656.400	58.357	
656.500	35.942	
656.600	27.595	
656.700	71.190	
656.800	62.206	
656.900	71.222	
657.000	71.762	
657.100	54.156	
657.200	41.915	
657.300	74.328	
657.400	67.665	
657.500	64.999	
657.600	59.897	
657.700	55.447	
657.800	69.661	
657.900	42.747	
658.000	46.163	
658.100	55.414	
658.200	66.152	
658.300	52.445	
658.400	72.231	
658.500	75.455	
658.600	57.549	
658.700	56.413	
658.800	62.769	
658.900	47.747	
659.000	61.279	
659.100	73.985	
659.200	56.106	
659.300	68.926	
659.400	73.885	
659.500	44.150	
659.600	75.444	
659.700	60.665	
659.800	85.759	
659.900	49.420	
660.000	40.819	
660.100	45.571	
660.200	79.513	
660.300	59.725	
660.400	76.367	
660.500	49.070	
660.600	52.113	
660.700	50.514	
660.800	75.045	
660.900	49.063	
661.000	69.607	
661.100	36.596	
661.200	61.447	
661.300	41.328	
661.400	66.224	
661.500	51.504	
661.600	45.057	
661.700	53.123	
661.800	69.274	
661.900	42.580	
662.000	61.455	
662.100	74.039	
662.200	51.059	
662.300	58.236	
662.400	45.851	
662.500	54.976	
662.600	57.026	
662.700	60.778	
662.800	50.312	
662.900	63.059	
663.000	71.314	
663.100	47.809	
663.200	46.601	
663.300	55.785	
663.400	60.568	
663.500	44.495	
663.600	68.994	
663.700	71.742	
663.800	83.368	
663.900	65.518	
664.000	46.912	
664.100	36.499	
664.200	55.288	
664.300	56.444	
664.400	61.758	
664.500	59.395	
664.600	39.600	
664.700	60.194	
664.800	35.289	
664.900	50.334	
665.000	64.599	
665.100	69.594	
665.200	51.869	
665.300	67.181	
665.400	57.031	
665.500	58.613	
665.600	60.627	
665.700	73.172	
665.800	62.407	
665.900	47.537	
666.000	46.928	
666.100	63.578	
666.200	60.593	
666.300	56.005	
666.400	43.317	
666.500	71.216	
666.600	40.750	
666.700	57.315	
666.800	59.318	
666.900	53.613	
667.000	58.521	
667.100	55.529	
667.200	69.363	
667.300	59.772	
667.400	61.980	
667.500	44.442	
667.600	44.546	
667.700	48.513	
667.800	36.008	
667.900	69.228	
668.000	59.858	
668.100	50.072	
668.200	66.240	
668.300	42.353	
668.400	45.244	
668.500	61.709	
668.600	43.664	
668.700	66.802	
668.800	27.825	
668.900	57.991	
669.000	57.773	
669.100	61.424	
669.200	49.964	
669.300	48.932	
669.400	54.527	
669.500	51.909	
669.600	64.381	
669.700	49.222	
669.800	66.206	
669.900	44.686	
670.000	47.232	
670.100	67.504	
670.200	57.116	
670.300	65.705	
670.400	29.022	
670.500	62.546	
670.600	49.736	
670.700	62.223	
670.800	49.813	
670.900	51.122	
671.000	35.108	
671.100	55.064	
671.200	52.694	
671.300	62.252	
671.400	57.040	
671.500	57.030	
671.600	56.783	
671.700	36.723	
671.800	58.278	
671.900	52.137	
672.000	60.788	
672.100	68.282	
672.200	58.504	
672.300	33.756	
672.400	17.003	
672.500	60.657	
672.600	37.514	
672.700	55.051	
672.800	69.173	
672.900	65.474	
673.000	57.894	
673.100	65.603	
673.200	49.055	
673.300	55.781	
673.400	36.149	
673.500	51.692	
673.600	34.415	
673.700	63.835	
673.800	46.369	
673.900	58.017	
674.000	67.306	
674.100	43.915	
674.200	56.862	
674.300	63.714	
674.400	56.288	
674.500	62.235	
674.600	52.656	
674.700	62.821	
674.800	55.750	
674.900	61.211	
675.000	61.507	
675.100	47.438	
675.200	37.587	
675.300	49.557	
675.400	56.842	
675.500	76.324	
675.600	55.547	
675.700	49.608	
675.800	44.593	
675.900	56.337	
676.000	72.870	
676.100	53.350	
676.200	71.097	
676.300	47.313	
676.400	31.477	
676.500	71.543	
676.600	55.273	
676.700	62.542	
676.800	39.298	
676.900	54.686	
677.000	48.856	
677.100	53.470	
677.200	70.603	
677.300	75.136	
677.400	45.019	
677.500	41.742	
677.600	42.303	
677.700	49.076	
677.800	48.702	
677.900	54.653	
678.000	60.845	
678.100	42.055	
678.200	76.939	
678.300	46.856	
678.400	69.763	
678.500	67.202	
678.600	77.192	
678.700	40.784	
678.800	52.996	
678.900	56.291	
679.000	56.191	
679.100	50.123	
679.200	34.575	
679.300	48.747	
679.400	42.690	
679.500	51.785	
679.600	62.076	
679.700	51.703	
679.800	54.498	
679.900	42.480	
680.000	52.754	
680.100	53.406	
680.200	44.505	
680.300	52.887	
680.400	40.135	
680.500	41.636	
680.600	46.812	
680.700	55.260	
680.800	70.169	
680.900	43.331	
681.000	19.920	
681.100	52.474	
681.200	52.255	
681.300	59.974	
681.400	53.570	
681.500	67.667	
681.600	42.980	
681.700	36.407	
681.800	56.672	
681.900	52.791	
682.000	47.001	
682.100	41.293	
682.200	46.492	
682.300	28.030	
682.400	56.230	
682.500	63.992	
682.600	77.820	
682.700	18.199	
682.800	43.816	
682.900	57.150	
683.000	52.296	
683.100	55.806	
683.200	60.270	
683.300	35.273	
683.400	42.464	
683.500	56.085	
683.600	27.290	
683.700	64.753	
683.800	67.556	
683.900	49.547	
684.000	35.763	
684.100	75.414	
684.200	41.511	
684.300	50.886	
684.400	57.049	
684.500	52.325	
684.600	37.503	
684.700	59.651	
684.800	37.812	
684.900	66.591	
685.000	58.837	
685.100	47.321	
685.200	56.922	
685.300	67.777	
685.400	44.142	
685.500	56.041	
685.600	42.671	
685.700	38.017	
685.800	26.748	
685.900	58.738	
686.000	48.811	
686.100	50.357	
686.200	66.456	
686.300	42.821	
686.400	39.959	
686.500	28.341	
686.600	58.361	
686.700	69.980	
686.800	77.230	
686.900	49.010	
687.000	47.851	
687.100	48.525	
687.200	60.806	
687.300	52.844	
687.400	41.383	
687.500	46.995	
687.600	51.592	
687.700	61.765	
687.800	65.611	
687.900	36.258	
688.000	40.889	
688.100	44.693	
688.200	44.676	
688.300	39.083	
688.400	53.949	
688.500	62.945	
688.600	49.710	
688.700	51.935	
688.800	50.206	
688.900	56.574	
689.000	60.168	
689.100	47.619	
689.200	43.024	
689.300	58.153	
689.400	50.216	
689.500	51.844	
689.600	38.321	
689.700	55.595	
689.800	58.138	
689.900	40.275	
690.000	54.946	
690.100	42.646	
690.200	72.740	
690.300	39.322	
690.400	19.723	
690.500	47.905	
690.600	53.893	
690.700	40.943	
690.800	37.584	
690.900	22.569	
691.000	28.648	
691.100	33.602	
691.200	45.559	
691.300	17.433	
691.400	35.117	
691.500	24.408	
691.600	15.075	
691.700	10.212	
691.800	13.746	
691.900	30.577	
692.000	22.290	
692.100	7.689	
692.200	19.239	
692.300	16.841	
692.400	5.576	
692.500	22.757	
692.600	2.567	
692.700	-4.138	
692.800	24.412	
692.900	22.398	
693.000	-0.983	
693.100	14.031	
693.200	5.447	
693.300	-0.326	
693.400	-3.238	
693.500	5.254	
693.600	22.290	
693.700	12.985	
693.800	9.203	
693.900	-2.174	
694.000	-19.612	
694.100	15.597	
694.200	8.749	
694.300	-1.515	
694.400	-9.966	
694.500	12.904	
694.600	5.899	
694.700	6.240	
694.800	-0.528	
694.900	4.852	
695.000	0.097	
695.100	19.338	
695.200	-15.520	
695.300	-26.550	
695.400	12.815	
695.500	-6.071	
695.600	5.141	
695.700	-9.042	
695.800	-14.809	
695.900	-6.409	
696.000	-3.449	
696.100	-22.831	
696.200	-1.575	
696.300	0.347	
696.400	-4.951	
696.500	-22.799	
696.600	-8.145	
696.700	-2.352	
696.800	-22.605	
696.900	-1.851	
697.000	1.113	
697.100	-16.261	
697.200	-0.576	
697.300	-9.487	
697.400	-17.454	
697.500	-23.145	
697.600	7.673	
697.700	4.010	
697.800	-4.215	
697.900	-3.234	
698.000	-9.158	
698.100	-19.004	
698.200	-7.941	
698.300	-3.426	
698.400	-10.202	
698.500	-23.269	
698.600	-18.320	
698.700	-13.799	
698.800	-0.245	
698.900	-16.186	
699.000	-0.947	
699.100	-23.804	
699.200	-27.641	
699.300	6.413	
699.400	-27.726	
699.500	-13.095	
699.600	-6.812	
699.700	-6.266	
699.800	-12.981	
699.900	-11.704	
700.000	-6.291	
700.100	-0.239	
700.200	-17.005	
700.300	-26.003	
700.400	-15.200	
700.500	-8.660	
700.600	-11.488	
700.700	-32.489	
700.800	-9.827	
700.900	-19.806	
701.000	-14.051	
701.100	-7.445	
701.200	-3.064	
701.300	-22.075	
701.400	-22.174	
701.500	-22.680	
701.600	-18.677	
701.700	-12.886	
701.800	-4.988	
701.900	9.181	
702.000	-39.748	
702.100	-27.637	
702.200	-7.733	
702.300	-18.866	
702.400	-2.585	
702.500	-22.149	
702.600	-22.670	
702.700	-27.880	
702.800	-7.662	
702.900	-14.551	
703.000	-0.448	
703.100	-9.038	
703.200	-41.719	
703.300	-19.133	
703.400	-38.005	
703.500	-14.413	
703.600	-0.819	
703.700	-13.448	
703.800	-22.838	
703.900	-12.717	
704.000	-20.487	
704.100	-29.686	
704.200	-19.240	
704.300	-20.547	
704.400	-30.979	
704.500	-29.156	
704.600	-20.109	
704.700	-8.899	
704.800	-2.302	
704.900	-51.393	
705.000	-25.224	
705.100	-17.979	
705.200	-23.393	
705.300	-34.375	
705.400	-23.723	
705.500	-16.230	
705.600	-50.140	
705.700	-19.714	
705.800	-23.098	
705.900	-28.195	
706.000	-32.823	
706.100	-32.547	
706.200	-37.909	
706.300	-20.025	
706.400	-31.420	
706.500	-26.648	
706.600	-25.501	
706.700	-34.406	
706.800	-21.833	
706.900	-34.771	
707.000	-31.986	
707.100	-9.158	
707.200	-18.678	
707.300	-13.936	
707.400	-39.124	
707.500	-51.091	
707.600	-21.958	
707.700	-14.322	
707.800	-29.704	
707.900	-40.154	
708.000	-35.483	
708.100	-18.599	
708.200	-24.909	
708.300	-28.441	
708.400	-38.423	
708.500	-42.120	
708.600	-27.908	
708.700	-21.339	
708.800	-12.454	
708.900	-19.974	
709.000	-20.859	
709.100	-29.432	
709.200	-43.041	
709.300	-47.471	
709.400	-22.265	
709.500	-13.909	
709.600	-44.823	
709.700	-19.647	
709.800	-36.138	
709.900	-26.098	
710.000	-26.858	
710.100	-40.216	
710.200	-44.437	
710.300	-34.038	
710.400	-15.876	
710.500	-39.273	
710.600	-31.036	
710.700	-27.966	
710.800	-29.350	
710.900	-43.333	
711.000	-27.377	
711.100	-40.041	
711.200	-36.588	
711.300	-14.801	
711.400	-34.485	
711.500	-34.017	
711.600	-23.231	
711.700	-15.696	
711.800	-17.561	
711.900	-23.681	
712.000	-35.185	
712.100	-28.531	
712.200	-33.168	
712.300	-35.699	
712.400	-12.850	
712.500	-31.373	
712.600	-47.247	
712.700	-32.064	
712.800	-34.934	
712.900	-32.836	
713.000	-13.954	
713.100	-34.101	
713.200	-25.191	
713.300	-20.964	
713.400	-28.385	
713.500	-28.904	
713.600	-18.119	
713.700	-26.281	
713.800	-14.746	
713.900	-44.722	
714.000	-44.919	
714.100	-43.258	
714.200	-30.130	
714.300	-21.093	
714.400	-39.540	
714.500	-37.199	
714.600	-21.712	
714.700	-14.279	
714.800	-25.280	
714.900	-20.226	
715.000	-36.443	
715.100	-33.627	
715.200	-20.670	
715.300	-14.677	
715.400	-55.724	
715.500	-36.176	
715.600	-23.127	
715.700	-26.699	
715.800	-41.382	
715.900	-10.562	
716.000	-34.955	
716.100	-28.727	
716.200	-46.495	
716.300	2.248	
716.400	-26.533	
716.500	-20.289	
716.600	-26.522	
716.700	-37.500	
716.800	-44.425	
716.900	-6.988	
717.000	-26.916	
717.100	-27.854	
717.200	-49.020	
717.300	-19.497	
717.400	-42.123	
717.500	-19.118	
717.600	-33.950	
717.700	-12.925	
717.800	-34.961	
717.900	-44.848	
718.000	-19.166	
718.100	-26.990	
718.200	-24.537	
718.300	-29.354	
718.400	-45.019	
718.500	-31.474	
718.600	-31.153	
718.700	-17.688	
718.800	-36.628	
718.900	-20.949	
719.000	-37.489	
719.100	-31.518	
719.200	-30.527	
719.300	-26.527	
719.400	-49.069	
719.500	-21.978	
719.600	-26.201	
719.700	-39.621	
719.800	-34.725	
719.900	-20.800	
720.000	-47.279	
720.100	-21.632	
720.200	-34.952	
720.300	-34.960	
720.400	-31.286	
720.500	-30.658	
720.600	-37.886	
720.700	-25.655	
720.800	-36.767	
720.900	-34.342	
721.000	-29.704	
721.100	-42.694	
721.200	-41.514	
721.300	-17.329	
721.400	-28.377	
721.500	-40.832	
721.600	-15.288	
721.700	-28.640	
721.800	-19.934	
721.900	-37.456	
722.000	-25.784	
722.100	-37.479	
722.200	-32.759	
722.300	-21.998	
722.400	-23.504	
722.500	-32.017	
722.600	-27.061	
722.700	-36.797	
722.800	-14.883	
722.900	-37.240	
723.000	-41.367	
723.100	-20.205	
723.200	-23.092	
723.300	-20.758	
723.400	-26.353	
723.500	-59.711	
723.600	-34.342	
723.700	-52.175	
723.800	-31.624	
723.900	-22.485	
724.000	-18.634	
724.100	-36.212	
724.200	-18.230	
724.300	-35.687	
724.400	-27.821	
724.500	-31.305	
724.600	-43.342	
724.700	-33.662	
724.800	-35.331	
724.900	-44.209	
725.000	-44.504	
725.100	-16.155	
725.200	-14.402	
725.300	-11.634	
725.400	-27.748	
725.500	-46.516	
725.600	-24.985	
725.700	-41.583	
725.800	-26.965	
725.900	-17.465	
726.000	-37.342	
726.100	-32.955	
726.200	-36.390	
726.300	-30.006	
726.400	-25.658	
726.500	-24.101	
726.600	-43.041	
726.700	-34.788	
726.800	-22.096	
726.900	-50.359	
727.000	-25.750	
727.100	-39.072	
727.200	-47.150	
727.300	-33.943	
727.400	-37.279	
727.500	-27.235	
727.600	-21.082	
727.700	-40.880	
727.800	-40.600	
727.900	-30.399	
728.000	-39.914	
728.100	-10.529	
728.200	-27.934	
728.300	-44.530	
728.400	-44.007	
728.500	-43.692	
728.600	-1.054	
728.700	-12.901	
728.800	-12.061	
728.900	-47.265	
729.000	-44.578	
729.100	-34.464	
729.200	-27.035	
729.300	-21.733	
729.400	-17.954	
729.500	-17.892	
729.600	-37.169	
729.700	-13.304	
729.800	-28.189	
729.900	-26.702	
730.000	-25.965	
730.100	-14.806	
730.200	-30.064	
730.300	-17.413	
730.400	-76.390	
730.500	-35.616	
730.600	-38.866	
730.700	-38.733	
730.800	-41.897	
730.900	-19.289	
731.000	-32.726	
731.100	-27.481	
731.200	-25.724	
731.300	-38.224	
731.400	-28.167	
731.500	-36.368	
731.600	-13.981	
731.700	-22.253	
731.800	-34.557	
731.900	-37.672	
732.000	-44.594	
732.100	-35.616	
732.200	-24.813	
732.300	-18.371	
732.400	-45.295	
732.500	-37.915	
732.600	-21.764	
732.700	-27.686	
732.800	-20.668	
732.900	-27.177	
733.000	-29.519	
733.100	-48.344	
733.200	-40.736	
733.300	-28.142	
733.400	-0.723	
733.500	-30.395	
733.600	-23.334	
733.700	-19.873	
733.800	-34.281	
733.900	-11.511	
734.000	-36.615	
734.100	-43.641	
734.200	-37.053	
734.300	-33.617	
734.400	-29.975	
734.500	-30.797	
734.600	-28.293	
734.700	-37.710	
734.800	-21.130	
734.900	-28.394	
735.000	-16.716	
735.100	-9.818	
735.200	-33.195	
735.300	-54.103	
735.400	-28.053	
735.500	-31.511	
735.600	-28.019	
735.700	-14.627	
735.800	-16.473	
735.900	-37.372	
736.000	-32.850	
736.100	-31.643	
736.200	-30.920	
736.300	-55.838	
736.400	-22.410	
736.500	-20.565	
736.600	-36.671	
736.700	-29.719	
736.800	-34.014	
736.900	-7.326	
737.000	-37.743	
737.100	-13.775	
737.200	-27.837	
737.300	-36.673	
737.400	-14.798	
737.500	-18.667	
737.600	-27.991	
737.700	-28.775	
737.800	-32.453	
737.900	-38.546	
738.000	-20.550	
738.100	-17.577	
738.200	-27.900	
738.300	-45.953	
738.400	-35.509	
738.500	-8.477	
738.600	-30.610	
738.700	-18.272	
738.800	-35.615	
738.900	-32.236	
739.000	-5.985	
739.100	-25.062	
739.200	-4.513	
739.300	-27.361	
739.400	-42.735	
739.500	-39.733	
739.600	-36.681	
739.700	-20.364	
739.800	-19.746	
739.900	-25.253	
740.000	-23.536	
740.100	-21.041	
740.200	-22.273	
740.300	-29.917	
740.400	-12.701	
740.500	-35.376	
740.600	-33.613	
740.700	-26.212	
740.800	-46.736	
740.900	-32.601	
741.000	-6.574	
741.100	-32.864	
741.200	-16.166	
741.300	-23.865	
741.400	-21.007	
741.500	-19.888	
741.600	-30.452	
741.700	-40.384	
741.800	-46.972	
741.900	-37.104	
742.000	-19.859	
742.100	-12.655	
742.200	-15.974	
742.300	-6.841	
742.400	-33.747	
742.500	-36.530	
742.600	-14.701	
742.700	-12.961	
742.800	-11.739	
742.900	-38.826	
743.000	-46.440	
743.100	-36.021	
743.200	-17.503	
743.300	-26.906	
743.400	-35.316	
743.500	-30.993	
743.600	-24.048	
743.700	-18.982	
743.800	-32.280	
743.900	-24.558	
744.000	-31.236	
744.100	-34.148	
744.200	-22.630	
744.300	-16.959	
744.400	-31.296	
744.500	-30.627	
744.600	-54.925	
744.700	-28.722	
744.800	-7.312	
744.900	-40.481	
745.000	-19.158	
745.100	-14.325	
745.200	-36.579	
745.300	-48.632	
745.400	-13.415	
745.500	-7.129	
745.600	-33.147	
745.700	-42.347	
745.800	-29.213	
745.900	-33.373	
746.000	-50.121	
746.100	-28.467	
746.200	-24.743	
746.300	-16.674	
746.400	-32.446	
746.500	-19.552	
746.600	-24.458	
746.700	-26.598	
746.800	-16.625	
746.900	-17.286	
747.000	-50.251	
747.100	-31.440	
747.200	-42.395	
747.300	-35.479	
747.400	-20.670	
747.500	-27.438	
747.600	-35.300	
747.700	-20.945	
747.800	-19.039	
747.900	-41.941	
748.000	-42.070	
748.100	-33.467	
748.200	-33.561	
748.300	-26.168	
748.400	-17.687	
748.500	-20.341	
748.600	-27.224	
748.700	-39.033	
748.800	-24.033	
748.900	-37.311	
749.000	-31.135	
749.100	-5.748	
749.200	-34.700	
749.300	-36.839	
749.400	-29.881	
749.500	-18.653	
749.600	-37.283	
749.700	-18.873	
749.800	-32.361	
749.900	-33.544	
750.000	-41.626	
750.100	-17.808	
750.200	-7.717	
750.300	0.827	
750.400	-53.743	
750.500	-40.835	
750.600	-27.828	
750.700	-31.707	
750.800	-12.999	
750.900	-17.888	
751.000	-14.547	
751.100	-39.558	
751.200	-36.415	
751.300	-14.774	
751.400	-24.498	
751.500	-33.048	
751.600	-24.164	
751.700	-35.244	
751.800	-36.490	
751.900	-42.445	
752.000	-0.843	
752.100	-22.059	
752.200	-28.265	
752.300	-24.498	
752.400	-31.212	
752.500	-26.766	
752.600	-42.413	
752.700	-23.142	
752.800	-21.493	
752.900	-29.193	
753.000	-34.733	
753.100	-22.981	
753.200	-25.104	
753.300	-25.364	
753.400	-13.337	
753.500	-52.022	
753.600	-11.999	
753.700	-14.585	
753.800	-25.586	
753.900	-19.905	
754.000	-15.436	
754.100	-43.823	
754.200	-45.000	
754.300	-1.019	
754.400	-20.430	
754.500	-24.618	
754.600	-22.653	
754.700	-32.600	
754.800	-33.908	
754.900	-26.742	
755.000	-29.088	
755.100	-21.519	
755.200	-31.846	
755.300	-27.447	
755.400	-30.505	
755.500	-24.666	
755.600	1.844	
755.700	-35.388	
755.800	-37.502	
755.900	-50.108	
756.000	-9.133	
756.100	-19.696	
756.200	-23.263	
756.300	-35.019	
756.400	-18.762	
756.500	-12.406	
756.600	-22.959	
756.700	-8.841	
756.800	-24.872	
756.900	-18.816	
757.000	-28.838	
757.100	-30.656	
757.200	-5.749	
757.300	-25.442	
757.400	-23.467	
757.500	-25.794	
757.600	-31.369	
757.700	-36.807	
757.800	-40.910	
757.900	-4.747	
758.000	-11.576	
758.100	-45.871	
758.200	-27.347	
758.300	-37.950	
758.400	-28.650	
758.500	-21.687	
758.600	-32.548	
758.700	-26.405	
758.800	-25.614	
758.900	-17.034	
759.000	-19.900	
759.100	-35.884	
759.200	-36.243	
759.300	-33.146	
759.400	-25.187	
759.500	-16.188	
759.600	-14.426	
759.700	-20.487	
759.800	-17.407	
759.900	-35.654	
760.000	-21.353	
760.100	-20.273	
760.200	-28.864	
760.300	-40.177	
760.400	-15.917	
760.500	-27.911	
760.600	-39.678	
760.700	-15.196	
760.800	-32.216	
760.900	-6.515	
761.000	-17.341	
761.100	-48.006	
761.200	-34.533	
761.300	-29.463	
761.400	12.280	
761.500	-17.233	
761.600	-26.320	
761.700	-35.652	
761.800	-34.139	
761.900	-23.859	
762.000	-29.508	
762.100	-46.659	
762.200	-5.621	
762.300	-21.745	
762.400	-13.552	
762.500	-16.248	
762.600	-4.310	
762.700	-24.778	
762.800	-26.542	
762.900	-42.322	
763.000	-28.871	
763.100	-21.679	
763.200	-28.086	
763.300	-53.689	
763.400	-22.184	
763.500	-22.478	
763.600	-30.167	
763.700	-11.876	
763.800	-13.110	
763.900	-37.323	
764.000	-38.213	
764.100	-20.067	
764.200	-19.714	
764.300	-25.943	
764.400	6.033	
764.500	-29.878	
764.600	-31.540	
764.700	-30.697	
764.800	-24.342	
764.900	6.038	
765.000	-34.795	
765.100	-12.654	
765.200	-2.584	
765.300	-31.645	
765.400	-24.418	
765.500	-31.581	
765.600	-20.690	
765.700	-26.061	
765.800	-26.449	
765.900	-27.901	
766.000	-12.016	
766.100	-16.328	
766.200	-32.564	
766.300	-10.754	
766.400	-26.124	
766.500	-18.046	
766.600	-10.354	
766.700	-26.910	
766.800	-25.103	
766.900	-39.940	
767.000	-31.501	
767.100	-30.292	
767.200	2.757	
767.300	-43.969	
767.400	-43.298	
767.500	-38.078	
767.600	-12.610	
767.700	-17.681	
767.800	-13.152	
767.900	-7.212	
768.000	-35.218	
768.100	-19.543	
768.200	-18.049	
768.300	-29.253	
768.400	-17.772	
768.500	-12.190	
768.600	-22.708	
768.700	-28.870	
768.800	-24.631	
768.900	-30.682	
769.000	-11.080	
769.100	-18.753	
769.200	-37.641	
769.300	-15.976	
769.400	-22.420	
769.500	-34.808	
769.600	-21.913	
769.700	-21.558	
769.800	-28.604	
769.900	-52.523	
770.000	-35.109	
770.100	-11.144	
770.200	-1.635	
770.300	-23.750	
770.400	-17.452	
770.500	-31.851	
770.600	-18.650	
770.700	-12.157	
770.800	-28.823	
770.900	-22.341	
771.000	-40.182	
771.100	-30.624	
771.200	-10.163	
771.300	-6.879	
771.400	-23.379	
771.500	-31.222	
771.600	-36.344	
771.700	-18.386	
771.800	-13.853	
771.900	-34.764	
772.000	-23.220	
772.100	-20.682	
772.200	-37.753	
772.300	-8.040	
772.400	-28.486	
772.500	-13.315	
772.600	-35.778	
772.700	-33.437	
772.800	-36.435	
772.900	-3.623	
773.000	-16.893	
773.100	-15.411	
773.200	-18.006	
773.300	-17.245	
773.400	-19.366	
773.500	-11.798	
773.600	-26.871	
773.700	-24.336	
773.800	-12.409	
773.900	-18.019	
774.000	-27.094	
774.100	-8.107	
774.200	-22.098	
774.300	-6.139	
774.400	-4.858	
774.500	-24.800	
774.600	-43.960	
774.700	-17.207	
774.800	-10.078	
774.900	-29.062	
775.000	-6.288	
775.100	-25.161	
775.200	-27.720	
775.300	-17.874	
775.400	-12.256	
775.500	-33.771	
775.600	-18.423	
775.700	-24.125	
775.800	-45.541	
775.900	-26.802	
776.000	-8.195	
776.100	-18.915	
776.200	-18.607	
776.300	-23.303	
776.400	-16.625	
776.500	-8.219	
776.600	-16.080	
776.700	-17.593	
776.800	-31.600	
776.900	-11.449	
777.000	-21.241	
777.100	-36.196	
777.200	-20.275	
777.300	-24.184	
777.400	-35.171	
777.500	-42.650	
777.600	-3.942	
777.700	-6.276	
777.800	2.478	
777.900	-31.716	
778.000	-18.587	
778.100	-40.225	
778.200	-38.663	
778.300	-8.736	
778.400	-7.771	
778.500	-9.520	
778.600	-31.428	
778.700	-30.360	
778.800	-34.418	
778.900	-13.283	
779.000	-7.866	
779.100	-14.971	
779.200	-43.560	
779.300	-20.267	
779.400	-2.852	
779.500	-0.409	
779.600	-15.345	
779.700	-51.642	
779.800	-37.198	
779.900	-28.261	
780.000	-1.427	
780.100	1.386	
780.200	-21.628	
780.300	-26.245	
780.400	-29.482	
780.500	-22.996	
780.600	-9.320	
780.700	-23.049	
780.800	-8.963	
780.900	0.181	
781.000	-26.510	
781.100	13.010	
781.200	38.683	
781.300	-9.075	
781.400	9.077	
781.500	11.169	
781.600	14.787	
781.700	-1.389	
781.800	4.977	
781.900	20.616	
782.000	15.148	
782.100	-5.628	
782.200	3.206	
782.300	13.524	
782.400	2.083	
782.500	23.951	
782.600	-1.822	
782.700	9.821	
782.800	-3.275	
782.900	-9.393	
783.000	30.718	
783.100	24.590	
783.200	3.091	
783.300	9.159	
783.400	13.017	
783.500	30.641	
783.600	24.878	
783.700	16.882	
783.800	2.269	
783.900	-5.910	
784.000	27.296	
784.100	13.431	
784.200	30.135	
784.300	-8.301	
784.400	-0.254	
784.500	18.577	
784.600	24.314	
784.700	32.218	
784.800	-12.070	
784.900	29.924	
785.000	8.035	
785.100	-0.665	
785.200	10.129	
785.300	3.799	
785.400	7.684	
785.500	38.095	
785.600	23.260	
785.700	11.121	
785.800	-3.112	
785.900	24.600	
786.000	35.328	
786.100	-9.762	
786.200	11.046	
786.300	10.616	
786.400	24.936	
786.500	17.521	
786.600	15.828	
786.700	15.214	
786.800	17.644	
786.900	8.874	
787.000	18.236	
787.100	10.111	
787.200	13.258	
787.300	1.244	
787.400	25.987	
787.500	2.780	
787.600	34.528	
787.700	19.863	
787.800	12.413	
787.900	14.696	
788.000	14.317	
788.100	13.693	
788.200	34.049	
788.300	5.129	
788.400	32.308	
788.500	6.680	
788.600	21.712	
788.700	12.041	
788.800	23.114	
788.900	26.560	
789.000	28.885	
789.100	5.794	
789.200	-4.689	
789.300	10.286	
789.400	19.426	
789.500	25.524	
789.600	7.754	
789.700	4.383	
789.800	18.308	
789.900	20.820	
790.000	17.649	
790.100	19.304	
790.200	10.753	
790.300	20.091	
790.400	39.019	
790.500	33.234	
790.600	18.018	
790.700	21.547	
790.800	9.153	
790.900	7.762	
791.000	17.106	
791.100	46.043	
791.200	26.377	
791.300	0.789	
791.400	42.745	
791.500	5.041	
791.600	36.443	
791.700	34.431	
791.800	27.336	
791.900	22.639	
792.000	40.509	
792.100	0.327	
792.200	32.962	
792.300	27.617	
792.400	38.650	
792.500	33.407	
792.600	30.714	
792.700	7.489	
792.800	7.392	
792.900	33.886	
793.000	33.082	
793.100	58.605	
793.200	15.482	
793.300	47.361	
793.400	47.605	
793.500	8.355	
793.600	60.391	
793.700	21.242	
793.800	29.688	
793.900	34.480	
794.000	39.860	
794.100	49.452	
794.200	33.983	
794.300	32.503	
794.400	41.098	
794.500	40.222	
794.600	44.784	
794.700	58.848	
794.800	19.136	
794.900	36.144	
795.000	51.100	
795.100	39.095	
795.200	41.348	
795.300	49.358	
795.400	40.606	
795.500	42.598	
795.600	36.191	
795.700	45.660	
795.800	59.180	
795.900	40.111	
796.000	57.394	
796.100	39.658	
796.200	20.882	
796.300	39.636	
796.400	74.055	
796.500	71.743	
796.600	48.399	
796.700	47.534	
796.800	62.165	
796.900	42.719	
797.000	63.553	
797.100	47.190	
797.200	41.108	
797.300	34.111	
797.400	61.650	
797.500	53.809	
797.600	60.162	
797.700	55.619	
797.800	65.272	
797.900	54.055	
798.000	54.616	
798.100	61.948	
798.200	70.494	
798.300	54.736	
798.400	54.994	
798.500	52.993	
798.600	49.913	
798.700	90.993	
798.800	68.879	
798.900	36.978	
799.000	67.790	
799.100	57.282	
799.200	76.024	
799.300	87.327	
799.400	72.447	
799.500	48.518	
799.600	69.182	
799.700	55.854	
799.800	74.195	
799.900	49.777	
800.000	52.286	
