time /s	I /nA	
0.100	42.856	
0.200	4.367	
0.300	7.651	
0.400	5.508	
0.500	-6.727	
0.600	-9.103	
0.700	4.202	
0.800	12.322	
0.900	5.166	
1.000	0.406	
1.100	-2.326	
1.200	-12.805	
1.300	14.308	
1.400	4.864	
1.500	10.761	
1.600	-15.895	
1.700	9.668	
1.800	0.096	
1.900	11.079	
2.000	-15.802	
2.100	-6.093	
2.200	5.430	
2.300	-5.496	
2.400	-6.736	
2.500	5.786	
2.600	18.769	
2.700	5.215	
2.800	11.306	
2.900	5.993	
3.000	-7.300	
3.100	-10.277	
3.200	-7.069	
3.300	7.717	
3.400	-5.963	
3.500	-3.808	
3.600	-9.580	
3.700	-7.206	
3.800	2.745	
3.900	4.445	
4.000	-5.400	
4.100	-13.205	
4.200	4.698	
4.300	6.831	
4.400	-14.816	
4.500	-9.301	
4.600	9.969	
4.700	7.831	
4.800	3.905	
4.900	-16.611	
5.000	6.152	
5.100	11.865	
5.200	3.010	
5.300	-10.415	
5.400	-6.304	
5.500	-1.877	
5.600	3.871	
5.700	8.366	
5.800	-11.012	
5.900	-16.394	
6.000	4.024	
6.100	-2.555	
6.200	2.128	
6.300	-1.299	
6.400	-3.952	
6.500	7.898	
6.600	-13.942	
6.700	-6.377	
6.800	-7.484	
6.900	-9.614	
7.000	-6.867	
7.100	-5.112	
7.200	-16.238	
7.300	29.065	
7.400	-2.435	
7.500	-9.547	
7.600	4.665	
7.700	-14.986	
7.800	-23.396	
7.900	-9.798	
8.000	7.772	
8.100	-6.410	
8.200	-2.785	
8.300	-7.130	
8.400	6.011	
8.500	-13.758	
8.600	-0.743	
8.700	24.819	
8.800	1.336	
8.900	3.767	
9.000	-7.238	
9.100	-0.977	
9.200	13.824	
9.300	-18.969	
9.400	-14.047	
9.500	8.597	
9.600	-16.428	
9.700	13.290	
9.800	-7.303	
9.900	9.283	
10.000	-0.005	
10.100	-1.742	
10.200	-2.345	
10.300	16.236	
10.400	1.966	
10.500	-4.154	
10.600	-21.975	
10.700	-11.878	
10.800	-3.819	
10.900	-4.892	
11.000	3.330	
11.100	-3.998	
11.200	-17.055	
11.300	-12.108	
11.400	4.190	
11.500	4.630	
11.600	-7.071	
11.700	-4.214	
11.800	14.463	
11.900	-22.830	
12.000	9.549	
12.100	9.877	
12.200	6.897	
12.300	-14.633	
12.400	-18.010	
12.500	-4.577	
12.600	-17.492	
12.700	-7.415	
12.800	-10.540	
12.900	-10.440	
13.000	-14.411	
13.100	16.398	
13.200	10.464	
13.300	7.963	
13.400	5.303	
13.500	-7.357	
13.600	-1.147	
13.700	-9.616	
13.800	-7.723	
13.900	-8.720	
14.000	-15.382	
14.100	-2.178	
14.200	-1.940	
14.300	-7.323	
14.400	12.028	
14.500	-19.845	
14.600	-10.263	
14.700	-2.631	
14.800	-8.261	
14.900	-9.094	
15.000	9.376	
15.100	-12.458	
15.200	-4.306	
15.300	0.724	
15.400	-12.015	
15.500	1.236	
15.600	2.452	
15.700	5.395	
15.800	-0.820	
15.900	-28.492	
16.000	0.914	
16.100	5.200	
16.200	6.574	
16.300	-29.071	
16.400	-18.250	
16.500	-21.913	
16.600	2.803	
16.700	-3.461	
16.800	-7.153	
16.900	-22.178	
17.000	-10.096	
17.100	3.635	
17.200	5.055	
17.300	-1.205	
17.400	2.065	
17.500	-3.933	
17.600	9.629	
17.700	-8.360	
17.800	13.702	
17.900	-8.769	
18.000	3.395	
18.100	-22.411	
18.200	17.410	
18.300	-10.662	
18.400	1.473	
18.500	-4.071	
18.600	4.616	
18.700	2.901	
18.800	-9.300	
18.900	-2.838	
19.000	5.958	
19.100	2.602	
19.200	2.491	
19.300	-11.352	
19.400	-22.226	
19.500	7.123	
19.600	7.032	
19.700	16.140	
19.800	-11.488	
19.900	0.773	
20.000	-11.731	
20.100	-8.058	
20.200	-19.535	
20.300	7.691	
20.400	-1.602	
20.500	-11.857	
20.600	4.908	
20.700	5.760	
20.800	7.045	
20.900	-1.880	
21.000	8.664	
21.100	-11.639	
21.200	-11.710	
21.300	-6.956	
21.400	-7.302	
21.500	7.408	
21.600	6.050	
21.700	-23.748	
21.800	-10.501	
21.900	-2.050	
22.000	9.900	
22.100	-8.153	
22.200	-2.530	
22.300	-5.385	
22.400	-7.182	
22.500	5.402	
22.600	-0.962	
22.700	-25.846	
22.800	-15.967	
22.900	-0.165	
23.000	4.041	
23.100	5.619	
23.200	0.462	
23.300	0.267	
23.400	7.060	
23.500	-15.316	
23.600	-5.496	
23.700	-0.208	
23.800	10.325	
23.900	-0.899	
24.000	-17.275	
24.100	-5.805	
24.200	4.111	
24.300	23.571	
24.400	3.464	
24.500	3.237	
24.600	-5.972	
24.700	-12.474	
24.800	-7.857	
24.900	10.953	
25.000	4.316	
25.100	-6.237	
25.200	-1.360	
25.300	-3.734	
25.400	-0.399	
25.500	-11.927	
25.600	1.152	
25.700	10.128	
25.800	-15.357	
25.900	-2.864	
26.000	-0.490	
26.100	17.612	
26.200	8.468	
26.300	-6.476	
26.400	0.811	
26.500	-0.056	
26.600	-3.722	
26.700	3.345	
26.800	-1.561	
26.900	6.088	
27.000	0.262	
27.100	-12.115	
27.200	-9.805	
27.300	4.756	
27.400	11.811	
27.500	-8.574	
27.600	-5.669	
27.700	-9.392	
27.800	6.198	
27.900	-1.903	
28.000	-22.428	
28.100	-4.220	
28.200	4.949	
28.300	13.650	
28.400	-19.383	
28.500	-15.175	
28.600	4.924	
28.700	-10.425	
28.800	-3.559	
28.900	-0.395	
29.000	1.301	
29.100	32.050	
29.200	-11.879	
29.300	-5.529	
29.400	2.825	
29.500	1.497	
29.600	4.214	
29.700	-4.970	
29.800	-10.196	
29.900	-4.253	
30.000	-17.911	
30.100	6.062	
30.200	15.222	
30.300	-4.524	
30.400	3.398	
30.500	11.979	
30.600	-10.489	
30.700	6.261	
30.800	30.002	
30.900	-0.973	
31.000	-8.477	
31.100	14.244	
31.200	-2.513	
31.300	6.621	
31.400	17.521	
31.500	10.734	
31.600	14.884	
31.700	13.562	
31.800	-3.804	
31.900	12.120	
32.000	37.990	
32.100	2.349	
32.200	1.401	
32.300	19.006	
32.400	25.251	
32.500	38.498	
32.600	24.988	
32.700	9.352	
32.800	19.495	
32.900	14.978	
33.000	4.152	
33.100	-1.477	
33.200	-5.618	
33.300	28.953	
33.400	3.584	
33.500	27.342	
33.600	3.803	
33.700	33.044	
33.800	20.237	
33.900	12.369	
34.000	7.958	
34.100	35.050	
34.200	25.838	
34.300	9.958	
34.400	23.483	
34.500	0.466	
34.600	34.203	
34.700	12.560	
34.800	14.172	
34.900	21.730	
35.000	15.172	
35.100	42.765	
35.200	7.392	
35.300	30.489	
35.400	14.529	
35.500	24.851	
35.600	17.922	
35.700	19.856	
35.800	17.798	
35.900	14.437	
36.000	14.418	
36.100	41.731	
36.200	28.781	
36.300	20.194	
36.400	24.863	
36.500	26.909	
36.600	27.397	
36.700	6.567	
36.800	28.918	
36.900	23.595	
37.000	29.701	
37.100	37.351	
37.200	27.767	
37.300	32.708	
37.400	-2.710	
37.500	13.927	
37.600	8.009	
37.700	40.958	
37.800	35.382	
37.900	20.324	
38.000	12.608	
38.100	20.694	
38.200	21.424	
38.300	22.048	
38.400	35.387	
38.500	22.168	
38.600	14.658	
38.700	10.725	
38.800	7.885	
38.900	43.160	
39.000	27.758	
39.100	34.696	
39.200	11.837	
39.300	1.200	
39.400	27.827	
39.500	20.036	
39.600	25.205	
39.700	26.681	
39.800	23.877	
39.900	19.759	
40.000	20.798	
40.100	40.558	
40.200	24.246	
40.300	25.134	
40.400	27.662	
40.500	5.643	
40.600	5.049	
40.700	25.064	
40.800	38.851	
40.900	8.700	
41.000	20.800	
41.100	12.110	
41.200	34.213	
41.300	28.825	
41.400	20.372	
41.500	4.376	
41.600	5.525	
41.700	23.838	
41.800	17.064	
41.900	21.457	
42.000	24.183	
42.100	3.073	
42.200	29.637	
42.300	29.310	
42.400	41.466	
42.500	29.668	
42.600	7.404	
42.700	32.580	
42.800	30.296	
42.900	-1.022	
43.000	24.067	
43.100	14.945	
43.200	32.165	
43.300	25.864	
43.400	14.784	
43.500	33.778	
43.600	28.553	
43.700	18.831	
43.800	43.594	
43.900	29.518	
44.000	29.917	
44.100	17.350	
44.200	26.802	
44.300	25.883	
44.400	21.578	
44.500	18.533	
44.600	23.965	
44.700	33.451	
44.800	34.822	
44.900	13.757	
45.000	31.702	
45.100	16.275	
45.200	13.368	
45.300	34.043	
45.400	21.558	
45.500	9.879	
45.600	48.314	
45.700	20.483	
45.800	24.842	
45.900	18.698	
46.000	26.233	
46.100	22.215	
46.200	31.705	
46.300	11.068	
46.400	26.870	
46.500	23.323	
46.600	23.970	
46.700	32.893	
46.800	28.048	
46.900	31.072	
47.000	27.770	
47.100	47.060	
47.200	41.987	
47.300	20.565	
47.400	24.634	
47.500	27.731	
47.600	48.197	
47.700	19.712	
47.800	22.172	
47.900	24.171	
48.000	15.007	
48.100	28.453	
48.200	33.902	
48.300	29.675	
48.400	23.637	
48.500	20.682	
48.600	31.159	
48.700	25.193	
48.800	47.831	
48.900	8.655	
49.000	62.818	
49.100	14.960	
49.200	15.881	
49.300	19.839	
49.400	36.159	
49.500	41.917	
49.600	29.584	
49.700	29.844	
49.800	11.412	
49.900	26.947	
50.000	37.557	
50.100	20.469	
50.200	24.338	
50.300	31.598	
50.400	6.312	
50.500	31.267	
50.600	52.882	
50.700	59.298	
50.800	2.225	
50.900	17.098	
51.000	31.785	
51.100	36.504	
51.200	13.003	
51.300	27.599	
51.400	30.724	
51.500	22.020	
51.600	34.045	
51.700	36.425	
51.800	39.741	
51.900	26.969	
52.000	21.384	
52.100	32.787	
52.200	17.907	
52.300	44.176	
52.400	44.784	
52.500	29.766	
52.600	6.190	
52.700	32.918	
52.800	23.951	
52.900	22.269	
53.000	44.447	
53.100	26.192	
53.200	32.143	
53.300	28.137	
53.400	31.674	
53.500	29.263	
53.600	22.680	
53.700	36.421	
53.800	36.720	
53.900	25.647	
54.000	28.959	
54.100	45.541	
54.200	43.152	
54.300	20.101	
54.400	17.662	
54.500	27.064	
54.600	42.811	
54.700	26.365	
54.800	32.925	
54.900	28.075	
55.000	26.306	
55.100	43.441	
55.200	31.518	
55.300	26.384	
55.400	35.526	
55.500	33.331	
55.600	36.369	
55.700	29.709	
55.800	30.698	
55.900	29.198	
56.000	33.516	
56.100	34.133	
56.200	13.244	
56.300	12.687	
56.400	36.433	
56.500	46.919	
56.600	15.178	
56.700	21.577	
56.800	28.416	
56.900	24.528	
57.000	40.752	
57.100	36.366	
57.200	21.875	
57.300	37.687	
57.400	28.984	
57.500	23.838	
57.600	23.596	
57.700	43.534	
57.800	29.174	
57.900	18.658	
58.000	30.821	
58.100	38.753	
58.200	25.912	
58.300	22.234	
58.400	30.502	
58.500	16.989	
58.600	25.534	
58.700	42.843	
58.800	43.058	
58.900	36.488	
59.000	31.960	
59.100	23.773	
59.200	38.485	
59.300	39.888	
59.400	40.202	
59.500	36.492	
59.600	18.429	
59.700	27.844	
59.800	21.073	
59.900	28.139	
60.000	41.481	
60.100	33.623	
60.200	15.024	
60.300	31.096	
60.400	13.950	
60.500	37.214	
60.600	28.631	
60.700	29.220	
60.800	38.196	
60.900	47.303	
61.000	25.311	
61.100	32.590	
61.200	13.152	
61.300	34.369	
61.400	23.050	
61.500	37.277	
61.600	36.497	
61.700	8.443	
61.800	14.604	
61.900	42.643	
62.000	18.896	
62.100	33.265	
62.200	46.979	
62.300	43.707	
62.400	38.372	
62.500	34.604	
62.600	25.318	
62.700	29.368	
62.800	30.152	
62.900	34.149	
63.000	37.977	
63.100	17.148	
63.200	25.160	
63.300	36.835	
63.400	47.062	
63.500	35.710	
63.600	36.411	
63.700	24.224	
63.800	24.746	
63.900	29.210	
64.000	34.171	
64.100	31.144	
64.200	29.613	
64.300	30.914	
64.400	23.982	
64.500	26.162	
64.600	29.470	
64.700	18.902	
64.800	41.587	
64.900	31.943	
65.000	24.987	
65.100	29.285	
65.200	27.301	
65.300	28.683	
65.400	40.880	
65.500	-6.760	
65.600	33.098	
65.700	39.315	
65.800	35.510	
65.900	36.203	
66.000	38.638	
66.100	27.256	
66.200	16.112	
66.300	39.363	
66.400	43.392	
66.500	28.580	
66.600	19.687	
66.700	24.022	
66.800	24.514	
66.900	26.193	
67.000	60.340	
67.100	33.210	
67.200	26.182	
67.300	24.716	
67.400	22.791	
67.500	40.206	
67.600	30.280	
67.700	44.301	
67.800	46.665	
67.900	37.181	
68.000	31.512	
68.100	36.590	
68.200	41.146	
68.300	44.604	
68.400	30.748	
68.500	14.706	
68.600	34.249	
68.700	32.904	
68.800	52.150	
68.900	43.917	
69.000	19.047	
69.100	30.312	
69.200	14.911	
69.300	52.200	
69.400	43.516	
69.500	32.040	
69.600	5.617	
69.700	41.642	
69.800	34.966	
69.900	18.521	
70.000	39.178	
70.100	31.525	
70.200	34.100	
70.300	17.478	
70.400	37.681	
70.500	25.930	
70.600	57.915	
70.700	28.812	
70.800	15.731	
70.900	40.146	
71.000	33.120	
71.100	31.554	
71.200	21.054	
71.300	27.675	
71.400	34.679	
71.500	31.737	
71.600	40.811	
71.700	42.060	
71.800	40.380	
71.900	28.704	
72.000	29.426	
72.100	15.033	
72.200	28.545	
72.300	55.311	
72.400	16.810	
72.500	33.517	
72.600	33.771	
72.700	39.867	
72.800	27.878	
72.900	36.726	
73.000	39.089	
73.100	26.138	
73.200	19.710	
73.300	11.144	
73.400	46.921	
73.500	37.594	
73.600	38.253	
73.700	26.904	
73.800	28.853	
73.900	40.955	
74.000	42.917	
74.100	27.478	
74.200	29.176	
74.300	38.926	
74.400	17.575	
74.500	32.209	
74.600	52.211	
74.700	37.875	
74.800	23.123	
74.900	15.015	
75.000	42.973	
75.100	33.798	
75.200	52.317	
75.300	27.946	
75.400	19.097	
75.500	27.809	
75.600	50.756	
75.700	37.380	
75.800	43.206	
75.900	17.272	
76.000	20.982	
76.100	31.977	
76.200	15.580	
76.300	33.207	
76.400	48.479	
76.500	35.088	
76.600	37.964	
76.700	24.682	
76.800	34.136	
76.900	50.990	
77.000	39.165	
77.100	49.893	
77.200	26.326	
77.300	32.117	
77.400	19.327	
77.500	56.610	
77.600	31.262	
77.700	18.788	
77.800	10.280	
77.900	32.681	
78.000	43.740	
78.100	15.952	
78.200	37.958	
78.300	40.181	
78.400	30.213	
78.500	44.652	
78.600	28.425	
78.700	42.746	
78.800	26.149	
78.900	39.911	
79.000	18.997	
79.100	43.682	
79.200	21.380	
79.300	37.271	
79.400	23.549	
79.500	32.798	
79.600	35.980	
79.700	29.433	
79.800	7.949	
79.900	35.166	
80.000	31.808	
80.100	20.253	
80.200	37.005	
80.300	36.595	
80.400	44.110	
80.500	29.705	
80.600	41.621	
80.700	32.923	
80.800	31.128	
80.900	27.622	
81.000	34.071	
81.100	32.614	
81.200	28.878	
81.300	16.591	
81.400	34.465	
81.500	40.183	
81.600	25.502	
81.700	27.045	
81.800	35.443	
81.900	38.542	
82.000	31.732	
82.100	23.365	
82.200	30.369	
82.300	34.172	
82.400	10.873	
82.500	21.627	
82.600	36.828	
82.700	40.488	
82.800	29.965	
82.900	23.546	
83.000	32.295	
83.100	9.348	
83.200	41.277	
83.300	54.705	
83.400	37.902	
83.500	45.106	
83.600	14.642	
83.700	22.072	
83.800	14.662	
83.900	40.874	
84.000	40.548	
84.100	45.497	
84.200	8.142	
84.300	33.133	
84.400	53.571	
84.500	53.098	
84.600	20.117	
84.700	28.895	
84.800	32.201	
84.900	42.116	
85.000	14.693	
85.100	16.796	
85.200	49.736	
85.300	40.941	
85.400	18.878	
85.500	43.606	
85.600	51.004	
85.700	46.894	
85.800	30.339	
85.900	26.472	
86.000	38.059	
86.100	22.433	
86.200	37.583	
86.300	44.431	
86.400	32.733	
86.500	28.085	
86.600	19.344	
86.700	43.176	
86.800	30.186	
86.900	23.654	
87.000	12.393	
87.100	25.044	
87.200	51.198	
87.300	40.299	
87.400	19.858	
87.500	29.512	
87.600	43.876	
87.700	22.636	
87.800	34.355	
87.900	23.762	
88.000	50.882	
88.100	34.414	
88.200	33.186	
88.300	10.929	
88.400	25.814	
88.500	38.305	
88.600	32.850	
88.700	24.914	
88.800	28.961	
88.900	25.896	
89.000	30.998	
89.100	27.943	
89.200	22.419	
89.300	34.890	
89.400	41.891	
89.500	24.692	
89.600	20.303	
89.700	28.242	
89.800	32.409	
89.900	45.238	
90.000	7.882	
90.100	17.968	
90.200	36.463	
90.300	23.654	
90.400	11.390	
90.500	21.156	
90.600	7.398	
90.700	30.699	
90.800	21.436	
90.900	21.776	
91.000	16.751	
91.100	17.815	
91.200	0.368	
91.300	0.416	
91.400	35.980	
91.500	19.138	
91.600	24.147	
91.700	11.560	
91.800	25.837	
91.900	23.521	
92.000	19.222	
92.100	22.865	
92.200	15.665	
92.300	19.714	
92.400	26.623	
92.500	-7.118	
92.600	28.475	
92.700	10.905	
92.800	22.180	
92.900	-3.129	
93.000	29.702	
93.100	11.926	
93.200	4.593	
93.300	11.709	
93.400	16.133	
93.500	6.841	
93.600	-0.265	
93.700	14.388	
93.800	28.861	
93.900	10.601	
94.000	15.100	
94.100	-0.223	
94.200	7.421	
94.300	15.588	
94.400	5.889	
94.500	19.045	
94.600	17.205	
94.700	12.767	
94.800	0.860	
94.900	12.793	
95.000	9.636	
95.100	-6.696	
95.200	-0.586	
95.300	10.653	
95.400	10.227	
95.500	-3.470	
95.600	15.899	
95.700	27.520	
95.800	14.073	
95.900	10.500	
96.000	-1.630	
96.100	11.894	
96.200	1.910	
96.300	12.258	
96.400	-14.384	
96.500	3.161	
96.600	16.732	
96.700	2.675	
96.800	21.832	
96.900	-7.983	
97.000	-5.180	
97.100	-2.231	
97.200	12.667	
97.300	11.194	
97.400	12.008	
97.500	15.803	
97.600	-7.947	
97.700	-15.547	
97.800	0.186	
97.900	3.317	
98.000	28.617	
98.100	12.311	
98.200	2.133	
98.300	5.183	
98.400	1.523	
98.500	0.030	
98.600	5.640	
98.700	6.847	
98.800	12.751	
98.900	-17.991	
99.000	10.181	
99.100	13.738	
99.200	4.105	
99.300	11.461	
99.400	-7.993	
99.500	-9.670	
99.600	-3.228	
99.700	0.796	
99.800	11.671	
99.900	-7.317	
100.000	2.492	
100.100	-12.951	
100.200	17.032	
100.300	4.603	
100.400	2.292	
100.500	5.067	
100.600	-6.833	
100.700	5.913	
100.800	3.335	
100.900	-0.496	
101.000	7.017	
101.100	-10.476	
101.200	-18.934	
101.300	-13.540	
101.400	-8.030	
101.500	-6.841	
101.600	-0.131	
101.700	3.466	
101.800	-3.993	
101.900	-18.536	
102.000	9.171	
102.100	0.689	
102.200	-8.971	
102.300	2.640	
102.400	0.935	
102.500	-7.702	
102.600	6.167	
102.700	-14.878	
102.800	-15.797	
102.900	-22.010	
103.000	-0.192	
103.100	2.042	
103.200	12.082	
103.300	-2.823	
103.400	-21.382	
103.500	-0.674	
103.600	-8.326	
103.700	-8.266	
103.800	-6.544	
103.900	0.017	
104.000	15.376	
104.100	-15.556	
104.200	-17.980	
104.300	19.400	
104.400	1.470	
104.500	-7.932	
104.600	-3.875	
104.700	8.752	
104.800	-25.300	
104.900	3.076	
105.000	-18.255	
105.100	4.913	
105.200	-11.368	
105.300	-17.070	
105.400	-4.826	
105.500	-20.322	
105.600	0.884	
105.700	-14.974	
105.800	-9.065	
105.900	5.251	
106.000	11.022	
106.100	-14.105	
106.200	9.973	
106.300	-7.465	
106.400	-20.253	
106.500	-4.734	
106.600	-3.621	
106.700	-14.548	
106.800	3.259	
106.900	-17.639	
107.000	-27.355	
107.100	-2.094	
107.200	-22.994	
107.300	15.785	
107.400	11.377	
107.500	-8.569	
107.600	-13.897	
107.700	-22.819	
107.800	-14.145	
107.900	-12.286	
108.000	0.845	
108.100	-11.378	
108.200	-10.747	
108.300	13.695	
108.400	-6.059	
108.500	-5.054	
108.600	-26.403	
108.700	-4.835	
108.800	-10.815	
108.900	-11.028	
109.000	-4.518	
109.100	2.730	
109.200	-0.533	
109.300	-8.585	
109.400	2.591	
109.500	-25.255	
109.600	2.772	
109.700	-8.422	
109.800	-26.504	
109.900	-7.700	
110.000	-13.344	
110.100	-11.179	
110.200	-12.171	
110.300	-11.321	
110.400	-3.048	
110.500	-27.691	
110.600	-7.229	
110.700	-19.069	
110.800	-2.233	
110.900	-0.625	
111.000	1.612	
111.100	-37.515	
111.200	-10.793	
111.300	21.635	
111.400	-33.907	
111.500	-3.595	
111.600	-3.019	
111.700	-13.074	
111.800	-10.645	
111.900	-16.372	
112.000	13.407	
112.100	-29.868	
112.200	-27.894	
112.300	-3.446	
112.400	-14.187	
112.500	1.317	
112.600	-8.007	
112.700	-7.830	
112.800	-7.655	
112.900	-10.195	
113.000	-20.802	
113.100	2.076	
113.200	-15.836	
113.300	-4.918	
113.400	-11.056	
113.500	-14.831	
113.600	-25.311	
113.700	-7.430	
113.800	2.337	
113.900	-15.734	
114.000	-21.097	
114.100	-13.516	
114.200	-16.886	
114.300	-5.192	
114.400	-15.126	
114.500	-12.540	
114.600	-22.981	
114.700	-7.299	
114.800	-22.154	
114.900	-6.449	
115.000	-37.933	
115.100	-18.742	
115.200	-9.405	
115.300	-20.253	
115.400	-18.573	
115.500	-21.354	
115.600	-17.230	
115.700	-20.219	
115.800	-11.932	
115.900	-11.270	
116.000	10.092	
116.100	22.485	
116.200	-27.608	
116.300	-23.499	
116.400	-9.941	
116.500	-24.717	
116.600	2.197	
116.700	0.727	
116.800	-3.531	
116.900	-36.598	
117.000	-18.023	
117.100	-21.234	
117.200	-2.238	
117.300	-7.965	
117.400	-2.638	
117.500	-14.682	
117.600	-15.661	
117.700	-3.653	
117.800	-9.804	
117.900	-13.402	
118.000	-10.585	
118.100	-16.483	
118.200	-6.348	
118.300	-21.267	
118.400	-25.244	
118.500	-17.100	
118.600	-16.999	
118.700	-18.242	
118.800	-9.040	
118.900	-18.835	
119.000	18.857	
119.100	-27.410	
119.200	-30.448	
119.300	2.210	
119.400	-0.244	
119.500	-24.342	
119.600	-3.598	
119.700	-30.270	
119.800	-12.055	
119.900	-21.630	
120.000	-12.950	
120.100	-17.313	
120.200	4.113	
120.300	5.604	
120.400	-3.224	
120.500	-22.866	
120.600	-25.917	
120.700	-20.617	
120.800	13.255	
120.900	-5.935	
121.000	-10.063	
121.100	-25.962	
121.200	-5.371	
121.300	-9.772	
121.400	-13.106	
121.500	-9.053	
121.600	-3.145	
121.700	-16.176	
121.800	-14.978	
121.900	-11.104	
122.000	-12.483	
122.100	-32.108	
122.200	-18.967	
122.300	-11.969	
122.400	-18.344	
122.500	-15.148	
122.600	-12.732	
122.700	-27.497	
122.800	-6.172	
122.900	-7.211	
123.000	6.595	
123.100	-16.847	
123.200	-23.695	
123.300	-23.863	
123.400	-19.910	
123.500	-2.441	
123.600	-4.987	
123.700	-25.593	
123.800	-15.626	
123.900	-18.232	
124.000	-36.684	
124.100	-14.803	
124.200	-4.211	
124.300	-2.712	
124.400	-7.841	
124.500	-20.214	
124.600	-13.408	
124.700	-28.069	
124.800	-7.391	
124.900	9.000	
125.000	14.706	
125.100	-22.944	
125.200	-2.061	
125.300	-14.987	
125.400	-6.905	
125.500	-20.554	
125.600	-4.035	
125.700	-8.993	
125.800	0.085	
125.900	-4.187	
126.000	-29.051	
126.100	-4.140	
126.200	-23.164	
126.300	-8.666	
126.400	-19.473	
126.500	-14.357	
126.600	1.182	
126.700	-11.485	
126.800	-16.265	
126.900	-29.251	
127.000	-18.462	
127.100	-13.078	
127.200	2.815	
127.300	-18.423	
127.400	-10.884	
127.500	-12.938	
127.600	-12.509	
127.700	-11.624	
127.800	-5.742	
127.900	0.118	
128.000	-28.109	
128.100	-23.201	
128.200	5.406	
128.300	-14.492	
128.400	-9.606	
128.500	-14.409	
128.600	-13.864	
128.700	-22.821	
128.800	-9.491	
128.900	-22.616	
129.000	-15.330	
129.100	11.124	
129.200	-12.464	
129.300	-6.123	
129.400	-23.903	
129.500	-6.642	
129.600	-15.281	
129.700	-24.449	
129.800	-19.081	
129.900	-6.809	
130.000	-18.955	
130.100	-20.405	
130.200	-4.459	
130.300	-6.008	
130.400	-23.652	
130.500	-8.989	
130.600	-17.412	
130.700	-12.706	
130.800	-24.597	
130.900	-13.974	
131.000	-36.989	
131.100	0.353	
131.200	-4.327	
131.300	4.547	
131.400	-2.899	
131.500	-16.752	
131.600	-8.612	
131.700	-8.774	
131.800	3.869	
131.900	-13.375	
132.000	-26.972	
132.100	-43.649	
132.200	0.081	
132.300	-5.874	
132.400	-21.943	
132.500	-18.480	
132.600	-9.559	
132.700	-22.761	
132.800	-22.920	
132.900	-3.241	
133.000	-21.714	
133.100	-12.026	
133.200	-37.669	
133.300	-18.780	
133.400	-10.479	
133.500	-6.995	
133.600	-7.059	
133.700	-11.176	
133.800	-14.787	
133.900	-40.967	
134.000	-25.801	
134.100	-7.488	
134.200	-13.707	
134.300	-27.486	
134.400	-14.279	
134.500	-25.445	
134.600	-12.202	
134.700	-12.083	
134.800	-9.426	
134.900	-43.903	
135.000	-6.564	
135.100	-19.254	
135.200	-20.497	
135.300	-12.071	
135.400	0.734	
135.500	1.838	
135.600	-8.350	
135.700	-17.195	
135.800	-24.759	
135.900	-16.132	
136.000	-9.943	
136.100	-15.084	
136.200	-36.146	
136.300	-11.215	
136.400	-11.512	
136.500	-23.946	
136.600	-4.802	
136.700	-20.108	
136.800	-17.118	
136.900	-18.944	
137.000	-37.683	
137.100	-14.467	
137.200	-5.859	
137.300	-15.380	
137.400	-27.865	
137.500	4.059	
137.600	-23.239	
137.700	-6.107	
137.800	-8.726	
137.900	-23.225	
138.000	-28.710	
138.100	-0.763	
138.200	-11.007	
138.300	-30.483	
138.400	-7.383	
138.500	-12.926	
138.600	-31.409	
138.700	-26.948	
138.800	-9.193	
138.900	-17.329	
139.000	-11.736	
139.100	-1.690	
139.200	-31.196	
139.300	-11.326	
139.400	-19.131	
139.500	-7.522	
139.600	-28.406	
139.700	-9.189	
139.800	-15.760	
139.900	-30.519	
140.000	-13.455	
140.100	1.089	
140.200	-25.107	
140.300	-10.015	
140.400	-1.679	
140.500	-8.514	
140.600	-4.099	
140.700	-16.720	
140.800	-31.636	
140.900	-11.922	
141.000	-19.594	
141.100	-11.549	
141.200	-25.474	
141.300	-19.287	
141.400	-22.863	
141.500	-29.546	
141.600	-36.228	
141.700	-0.213	
141.800	14.533	
141.900	-16.036	
142.000	-16.371	
142.100	-7.559	
142.200	-7.133	
142.300	-14.785	
142.400	8.009	
142.500	-23.967	
142.600	-31.761	
142.700	-27.175	
142.800	-3.483	
142.900	-21.349	
143.000	-10.001	
143.100	-15.975	
143.200	-5.222	
143.300	-20.336	
143.400	-9.573	
143.500	-16.240	
143.600	-31.492	
143.700	-8.399	
143.800	-8.950	
143.900	-6.033	
144.000	-12.983	
144.100	-9.410	
144.200	-14.803	
144.300	-37.585	
144.400	-22.679	
144.500	-4.195	
144.600	-17.676	
144.700	-22.144	
144.800	-14.733	
144.900	-11.803	
145.000	-8.187	
145.100	-8.452	
145.200	6.031	
145.300	-14.162	
145.400	1.090	
145.500	-6.508	
145.600	-30.910	
145.700	-4.049	
145.800	-3.734	
145.900	-19.490	
146.000	-2.226	
146.100	-23.066	
146.200	-17.485	
146.300	-20.077	
146.400	-26.174	
146.500	-19.854	
146.600	-1.616	
146.700	-9.697	
146.800	-6.284	
146.900	-18.823	
147.000	-25.142	
147.100	-1.777	
147.200	-28.875	
147.300	0.005	
147.400	-13.444	
147.500	-20.391	
147.600	0.874	
147.700	-13.213	
147.800	-13.306	
147.900	-22.510	
148.000	-1.144	
148.100	-4.111	
148.200	-6.126	
148.300	-34.785	
148.400	-20.459	
148.500	8.893	
148.600	-10.874	
148.700	-7.154	
148.800	4.033	
148.900	-10.405	
149.000	-9.661	
149.100	-37.481	
149.200	-11.728	
149.300	-7.765	
149.400	-6.180	
149.500	2.202	
149.600	-18.224	
149.700	-23.123	
149.800	-5.301	
149.900	-19.383	
150.000	3.661	
150.100	0.979	
150.200	-26.511	
150.300	-4.642	
150.400	-8.694	
150.500	6.787	
150.600	-5.836	
150.700	-14.223	
150.800	-22.624	
150.900	-24.159	
151.000	-11.595	
151.100	-7.820	
151.200	-1.793	
151.300	-23.779	
151.400	6.509	
151.500	-14.223	
151.600	-4.020	
151.700	-16.603	
151.800	-19.172	
151.900	1.595	
152.000	-11.113	
152.100	-14.136	
152.200	-13.932	
152.300	-3.790	
152.400	-11.140	
152.500	-31.896	
152.600	-15.001	
152.700	-21.728	
152.800	-0.926	
152.900	-6.583	
153.000	-17.678	
153.100	-18.833	
153.200	-20.932	
153.300	-20.553	
153.400	-10.587	
153.500	-16.996	
153.600	-8.134	
153.700	-13.640	
153.800	-32.077	
153.900	-21.810	
154.000	-5.887	
154.100	-18.557	
154.200	-6.266	
154.300	-21.264	
154.400	-15.021	
154.500	-1.787	
154.600	-17.468	
154.700	-15.677	
154.800	-30.236	
154.900	-15.165	
155.000	-19.577	
155.100	-4.036	
155.200	-11.897	
155.300	-13.901	
155.400	-9.770	
155.500	-9.036	
155.600	-26.463	
155.700	-10.508	
155.800	-7.931	
155.900	-7.562	
156.000	-5.575	
156.100	-15.000	
156.200	-16.933	
156.300	-13.285	
156.400	-3.974	
156.500	-18.709	
156.600	-3.649	
156.700	-16.602	
156.800	-16.602	
156.900	-9.762	
157.000	-0.482	
157.100	-21.171	
157.200	-10.165	
157.300	-6.004	
157.400	10.292	
157.500	-5.040	
157.600	0.388	
157.700	-26.558	
157.800	-12.195	
157.900	-19.778	
158.000	-12.461	
158.100	-20.284	
158.200	-19.381	
158.300	-9.126	
158.400	-20.730	
158.500	0.572	
158.600	-19.109	
158.700	-10.849	
158.800	-23.827	
158.900	-3.918	
159.000	-13.329	
159.100	-12.172	
159.200	4.598	
159.300	-8.871	
159.400	3.670	
159.500	12.003	
159.600	-20.984	
159.700	-4.624	
159.800	-1.823	
159.900	15.186	
160.000	-23.539	
160.100	-12.973	
160.200	-0.724	
160.300	-13.819	
160.400	0.213	
160.500	3.019	
160.600	-8.025	
160.700	-16.656	
160.800	-14.284	
160.900	-18.429	
161.000	-1.610	
161.100	-8.977	
161.200	-34.155	
161.300	-16.144	
161.400	-7.993	
161.500	5.222	
161.600	-13.919	
161.700	-4.306	
161.800	9.444	
161.900	-8.395	
162.000	-15.245	
162.100	-13.352	
162.200	-3.028	
162.300	-5.597	
162.400	-5.987	
162.500	-15.586	
162.600	-11.024	
162.700	-15.426	
162.800	-14.621	
162.900	-25.821	
163.000	-4.770	
163.100	-20.481	
163.200	-0.514	
163.300	-2.531	
163.400	6.185	
163.500	-23.981	
163.600	-14.421	
163.700	-11.719	
163.800	-2.258	
163.900	-11.231	
164.000	11.931	
164.100	-6.084	
164.200	-42.604	
164.300	0.118	
164.400	-7.110	
164.500	-10.966	
164.600	-5.610	
164.700	1.997	
164.800	-19.838	
164.900	-14.526	
165.000	6.527	
165.100	-8.418	
165.200	-1.907	
165.300	-7.307	
165.400	-16.197	
165.500	-9.594	
165.600	-20.135	
165.700	-11.822	
165.800	-10.822	
165.900	-9.314	
166.000	-19.656	
166.100	-29.815	
166.200	9.148	
166.300	-18.215	
166.400	-13.155	
166.500	0.492	
166.600	-13.751	
166.700	-8.711	
166.800	-5.800	
166.900	-22.162	
167.000	-0.982	
167.100	-10.640	
167.200	-8.568	
167.300	-19.669	
167.400	-24.913	
167.500	15.511	
167.600	-17.899	
167.700	-19.172	
167.800	-11.727	
167.900	-13.224	
168.000	-3.410	
168.100	-11.293	
168.200	-35.399	
168.300	-1.377	
168.400	-5.312	
168.500	-4.735	
168.600	-3.429	
168.700	3.971	
168.800	-8.547	
168.900	-16.333	
169.000	-7.847	
169.100	-6.020	
169.200	-2.041	
169.300	-18.760	
169.400	-6.499	
169.500	-9.648	
169.600	-7.823	
169.700	-29.986	
169.800	4.417	
169.900	-17.157	
170.000	-15.211	
170.100	-6.213	
170.200	-33.494	
170.300	-20.039	
170.400	-13.260	
170.500	-4.399	
170.600	-2.741	
170.700	-16.931	
170.800	-3.499	
170.900	-14.490	
171.000	1.194	
171.100	-5.451	
171.200	-3.760	
171.300	-10.686	
171.400	-16.815	
171.500	1.660	
171.600	-6.829	
171.700	-21.212	
171.800	-22.856	
171.900	-24.574	
172.000	-8.703	
172.100	-10.058	
172.200	-10.729	
172.300	-14.536	
172.400	-18.638	
172.500	-11.258	
172.600	1.770	
172.700	7.580	
172.800	-7.945	
172.900	-18.272	
173.000	-25.903	
173.100	2.961	
173.200	-2.432	
173.300	-0.678	
173.400	0.498	
173.500	-21.070	
173.600	-8.242	
173.700	-22.858	
173.800	8.337	
173.900	-2.108	
174.000	-13.696	
174.100	-22.221	
174.200	-13.679	
174.300	2.293	
174.400	-4.108	
174.500	-3.759	
174.600	-12.752	
174.700	-3.896	
174.800	-10.283	
174.900	9.388	
175.000	1.188	
175.100	3.248	
175.200	0.800	
175.300	-17.209	
175.400	-5.005	
175.500	-2.789	
175.600	-13.803	
175.700	0.489	
175.800	-15.826	
175.900	-10.838	
176.000	-10.039	
176.100	-16.229	
176.200	17.866	
176.300	0.722	
176.400	-1.070	
176.500	-13.120	
176.600	-24.850	
176.700	-18.877	
176.800	-8.900	
176.900	-10.738	
177.000	6.176	
177.100	-12.582	
177.200	-5.249	
177.300	-8.669	
177.400	0.062	
177.500	-0.884	
177.600	-2.139	
177.700	1.307	
177.800	-10.074	
177.900	-18.613	
178.000	-4.794	
178.100	-4.785	
178.200	10.961	
178.300	-24.808	
178.400	-15.235	
178.500	-12.834	
178.600	-12.695	
178.700	-1.345	
178.800	-10.936	
178.900	-12.396	
179.000	1.442	
179.100	0.315	
179.200	-18.297	
179.300	1.102	
179.400	-3.925	
179.500	-1.217	
179.600	13.811	
179.700	1.769	
179.800	-16.506	
179.900	-28.686	
180.000	0.149	
180.100	-15.378	
180.200	5.512	
180.300	-5.039	
180.400	7.297	
180.500	-18.226	
180.600	10.698	
180.700	-1.616	
180.800	13.146	
180.900	15.313	
181.000	22.163	
181.100	-3.075	
181.200	-3.643	
181.300	2.793	
181.400	21.709	
181.500	13.666	
181.600	15.551	
181.700	30.730	
181.800	12.484	
181.900	9.369	
182.000	11.197	
182.100	22.162	
182.200	29.320	
182.300	-5.166	
182.400	0.326	
182.500	26.673	
182.600	13.310	
182.700	21.572	
182.800	14.318	
182.900	26.997	
183.000	14.791	
183.100	14.360	
183.200	16.239	
183.300	12.617	
183.400	23.238	
183.500	25.828	
183.600	25.563	
183.700	13.427	
183.800	11.768	
183.900	-1.060	
184.000	-5.415	
184.100	19.182	
184.200	4.845	
184.300	28.446	
184.400	19.684	
184.500	40.566	
184.600	21.061	
184.700	11.910	
184.800	20.435	
184.900	17.211	
185.000	2.507	
185.100	19.935	
185.200	2.874	
185.300	20.729	
185.400	20.120	
185.500	15.471	
185.600	8.721	
185.700	8.098	
185.800	20.432	
185.900	13.782	
186.000	17.025	
186.100	-1.478	
186.200	18.793	
186.300	18.665	
186.400	16.205	
186.500	21.048	
186.600	7.135	
186.700	34.408	
186.800	38.442	
186.900	26.425	
187.000	28.091	
187.100	12.079	
187.200	16.697	
187.300	5.556	
187.400	40.204	
187.500	29.270	
187.600	21.851	
187.700	0.550	
187.800	28.783	
187.900	22.389	
188.000	27.481	
188.100	29.080	
188.200	9.216	
188.300	28.679	
188.400	13.364	
188.500	20.752	
188.600	37.194	
188.700	31.470	
188.800	-0.276	
188.900	0.656	
189.000	25.429	
189.100	34.029	
189.200	34.567	
189.300	25.970	
189.400	12.932	
189.500	17.618	
189.600	34.480	
189.700	36.688	
189.800	40.553	
189.900	15.554	
190.000	23.159	
190.100	16.982	
190.200	27.299	
190.300	21.576	
190.400	7.404	
190.500	25.352	
190.600	28.976	
190.700	31.120	
190.800	43.222	
190.900	28.449	
191.000	30.750	
191.100	22.595	
191.200	31.569	
191.300	16.822	
191.400	26.703	
191.500	30.184	
191.600	33.833	
191.700	22.195	
191.800	23.642	
191.900	11.362	
192.000	35.383	
192.100	47.565	
192.200	22.052	
192.300	30.522	
192.400	23.509	
192.500	27.043	
192.600	44.376	
192.700	31.952	
192.800	12.362	
192.900	20.388	
193.000	37.718	
193.100	21.336	
193.200	38.433	
193.300	17.084	
193.400	27.536	
193.500	40.862	
193.600	3.752	
193.700	45.968	
193.800	23.301	
193.900	27.627	
194.000	21.691	
194.100	33.340	
194.200	28.397	
194.300	37.278	
194.400	31.248	
194.500	19.163	
194.600	28.756	
194.700	1.030	
194.800	19.381	
194.900	27.182	
195.000	41.979	
195.100	50.114	
195.200	13.185	
195.300	12.627	
195.400	37.858	
195.500	32.759	
195.600	26.050	
195.700	14.954	
195.800	36.345	
195.900	22.220	
196.000	27.996	
196.100	20.956	
196.200	47.677	
196.300	25.498	
196.400	20.405	
196.500	7.196	
196.600	40.759	
196.700	36.775	
196.800	37.672	
196.900	16.189	
197.000	21.073	
197.100	46.552	
197.200	33.238	
197.300	27.412	
197.400	37.030	
197.500	11.987	
197.600	40.163	
197.700	28.674	
197.800	26.028	
197.900	16.150	
198.000	32.373	
198.100	25.779	
198.200	34.988	
198.300	23.246	
198.400	35.274	
198.500	33.171	
198.600	30.912	
198.700	29.965	
198.800	24.073	
198.900	24.373	
199.000	34.485	
199.100	37.211	
199.200	47.364	
199.300	29.920	
199.400	23.641	
199.500	16.111	
199.600	32.725	
199.700	18.595	
199.800	41.119	
199.900	36.327	
200.000	29.607	
200.100	34.939	
200.200	29.648	
200.300	25.915	
200.400	20.551	
200.500	20.664	
200.600	35.971	
200.700	22.881	
200.800	34.339	
200.900	14.481	
201.000	25.198	
201.100	45.565	
201.200	41.506	
201.300	39.015	
201.400	44.587	
201.500	29.227	
201.600	36.548	
201.700	24.230	
201.800	44.426	
201.900	25.752	
202.000	36.872	
202.100	30.079	
202.200	35.989	
202.300	23.349	
202.400	41.582	
202.500	47.218	
202.600	44.844	
202.700	31.086	
202.800	5.443	
202.900	38.853	
203.000	25.352	
203.100	29.360	
203.200	47.235	
203.300	32.572	
203.400	34.519	
203.500	24.186	
203.600	28.494	
203.700	30.499	
203.800	44.982	
203.900	10.807	
204.000	33.328	
204.100	20.152	
204.200	31.846	
204.300	37.595	
204.400	47.180	
204.500	15.011	
204.600	34.572	
204.700	36.371	
204.800	6.468	
204.900	28.991	
205.000	40.276	
205.100	24.862	
205.200	49.875	
205.300	29.649	
205.400	41.906	
205.500	50.803	
205.600	32.848	
205.700	24.798	
205.800	20.513	
205.900	36.230	
206.000	44.197	
206.100	53.188	
206.200	20.014	
206.300	49.337	
206.400	17.675	
206.500	32.284	
206.600	35.789	
206.700	22.141	
206.800	30.292	
206.900	36.522	
207.000	9.481	
207.100	37.896	
207.200	35.481	
207.300	18.043	
207.400	25.701	
207.500	23.482	
207.600	23.068	
207.700	31.229	
207.800	46.048	
207.900	20.331	
208.000	28.677	
208.100	13.253	
208.200	42.623	
208.300	26.953	
208.400	40.281	
208.500	24.071	
208.600	31.666	
208.700	26.118	
208.800	19.883	
208.900	37.544	
209.000	38.813	
209.100	37.871	
209.200	30.991	
209.300	19.196	
209.400	20.933	
209.500	39.330	
209.600	44.540	
209.700	33.356	
209.800	17.331	
209.900	18.982	
210.000	27.575	
210.100	36.302	
210.200	44.379	
210.300	22.725	
210.400	31.082	
210.500	33.608	
210.600	41.927	
210.700	35.989	
210.800	22.762	
210.900	19.991	
211.000	27.537	
211.100	47.531	
211.200	58.490	
211.300	32.285	
211.400	52.227	
211.500	12.892	
211.600	29.573	
211.700	21.752	
211.800	36.078	
211.900	47.731	
212.000	32.815	
212.100	9.251	
212.200	47.522	
212.300	20.024	
212.400	23.343	
212.500	28.721	
212.600	40.566	
212.700	39.114	
212.800	21.649	
212.900	17.318	
213.000	40.862	
213.100	39.183	
213.200	39.363	
213.300	23.710	
213.400	11.253	
213.500	45.402	
213.600	54.740	
213.700	33.630	
213.800	38.719	
213.900	3.333	
214.000	10.889	
214.100	27.684	
214.200	29.199	
214.300	42.222	
214.400	30.883	
214.500	7.629	
214.600	43.158	
214.700	38.659	
214.800	27.378	
214.900	37.346	
215.000	20.895	
215.100	19.438	
215.200	10.614	
215.300	33.638	
215.400	40.287	
215.500	30.083	
215.600	24.001	
215.700	31.833	
215.800	12.066	
215.900	44.818	
216.000	48.070	
216.100	26.347	
216.200	29.974	
216.300	15.296	
216.400	13.734	
216.500	22.004	
216.600	34.606	
216.700	29.811	
216.800	20.817	
216.900	29.407	
217.000	37.853	
217.100	28.502	
217.200	51.771	
217.300	14.352	
217.400	31.783	
217.500	23.766	
217.600	41.241	
217.700	30.562	
217.800	35.104	
217.900	25.578	
218.000	36.683	
218.100	27.776	
218.200	24.352	
218.300	28.082	
218.400	20.606	
218.500	57.788	
218.600	28.619	
218.700	23.948	
218.800	17.912	
218.900	34.438	
219.000	30.251	
219.100	23.430	
219.200	26.834	
219.300	30.475	
219.400	34.208	
219.500	36.596	
219.600	32.728	
219.700	32.181	
219.800	24.701	
219.900	18.028	
220.000	31.159	
220.100	50.782	
220.200	26.171	
220.300	29.856	
220.400	15.088	
220.500	41.017	
220.600	32.555	
220.700	40.234	
220.800	25.986	
220.900	30.551	
221.000	51.554	
221.100	32.359	
221.200	42.895	
221.300	35.134	
221.400	31.299	
221.500	14.457	
221.600	24.640	
221.700	26.758	
221.800	34.793	
221.900	25.997	
222.000	37.257	
222.100	9.464	
222.200	39.755	
222.300	8.461	
222.400	39.508	
222.500	32.145	
222.600	51.230	
222.700	12.716	
222.800	23.810	
222.900	26.860	
223.000	46.795	
223.100	13.812	
223.200	19.716	
223.300	27.760	
223.400	29.604	
223.500	23.647	
223.600	42.255	
223.700	37.553	
223.800	38.872	
223.900	13.016	
224.000	25.713	
224.100	34.897	
224.200	24.647	
224.300	24.365	
224.400	40.384	
224.500	36.355	
224.600	21.037	
224.700	33.559	
224.800	27.499	
224.900	41.168	
225.000	37.932	
225.100	15.681	
225.200	22.977	
225.300	55.521	
225.400	35.405	
225.500	14.533	
225.600	38.315	
225.700	8.903	
225.800	17.383	
225.900	27.564	
226.000	42.987	
226.100	31.232	
226.200	12.599	
226.300	29.194	
226.400	32.783	
226.500	35.667	
226.600	27.723	
226.700	35.265	
226.800	21.683	
226.900	28.997	
227.000	36.354	
227.100	17.059	
227.200	57.382	
227.300	23.618	
227.400	11.662	
227.500	34.783	
227.600	36.886	
227.700	28.218	
227.800	35.401	
227.900	30.530	
228.000	20.480	
228.100	20.890	
228.200	12.475	
228.300	31.271	
228.400	64.503	
228.500	31.938	
228.600	3.749	
228.700	16.890	
228.800	30.735	
228.900	40.657	
229.000	31.176	
229.100	14.370	
229.200	31.341	
229.300	39.877	
229.400	31.368	
229.500	37.080	
229.600	34.888	
229.700	19.812	
229.800	18.841	
229.900	37.417	
230.000	43.852	
230.100	33.695	
230.200	41.266	
230.300	5.466	
230.400	16.534	
230.500	31.562	
230.600	28.977	
230.700	25.842	
230.800	37.280	
230.900	15.855	
231.000	20.585	
231.100	28.139	
231.200	34.386	
231.300	36.801	
231.400	17.840	
231.500	9.252	
231.600	31.564	
231.700	31.689	
231.800	23.738	
231.900	32.823	
232.000	41.912	
232.100	31.608	
232.200	19.612	
232.300	48.108	
232.400	30.534	
232.500	28.502	
232.600	10.442	
232.700	11.553	
232.800	32.583	
232.900	39.894	
233.000	30.077	
233.100	24.725	
233.200	32.295	
233.300	33.677	
233.400	22.639	
233.500	55.418	
233.600	18.460	
233.700	23.990	
233.800	27.909	
233.900	20.856	
234.000	17.348	
234.100	42.479	
234.200	17.553	
234.300	29.373	
234.400	7.598	
234.500	25.736	
234.600	35.705	
234.700	22.417	
234.800	29.210	
234.900	14.275	
235.000	12.081	
235.100	34.864	
235.200	22.779	
235.300	32.472	
235.400	36.667	
235.500	17.742	
235.600	3.457	
235.700	40.539	
235.800	31.536	
235.900	28.172	
236.000	35.489	
236.100	37.579	
236.200	36.660	
236.300	27.687	
236.400	33.093	
236.500	31.598	
236.600	33.086	
236.700	9.406	
236.800	34.019	
236.900	11.640	
237.000	27.413	
237.100	36.198	
237.200	32.640	
237.300	14.126	
237.400	33.378	
237.500	28.417	
237.600	27.047	
237.700	32.219	
237.800	22.371	
237.900	26.628	
238.000	15.450	
238.100	27.269	
238.200	12.338	
238.300	33.013	
238.400	31.593	
238.500	-0.455	
238.600	33.647	
238.700	30.290	
238.800	27.124	
238.900	30.018	
239.000	29.273	
239.100	24.608	
239.200	26.883	
239.300	35.470	
239.400	38.477	
239.500	34.943	
239.600	5.364	
239.700	11.310	
239.800	31.741	
239.900	36.113	
240.000	32.840	
240.100	15.756	
240.200	22.577	
240.300	21.517	
240.400	-6.920	
240.500	43.792	
240.600	22.625	
240.700	21.869	
240.800	9.557	
240.900	17.462	
241.000	33.766	
241.100	17.237	
241.200	21.366	
241.300	21.787	
241.400	10.524	
241.500	8.459	
241.600	16.012	
241.700	18.776	
241.800	35.707	
241.900	16.990	
242.000	13.436	
242.100	-9.355	
242.200	14.550	
242.300	11.257	
242.400	2.196	
242.500	0.959	
242.600	28.404	
242.700	3.919	
242.800	14.006	
242.900	23.523	
243.000	-2.516	
243.100	9.180	
243.200	8.224	
243.300	-6.317	
243.400	21.669	
243.500	15.287	
243.600	-6.141	
243.700	10.639	
243.800	-2.538	
243.900	6.158	
244.000	7.954	
244.100	0.705	
244.200	-4.519	
244.300	-10.051	
244.400	-8.057	
244.500	12.522	
244.600	13.590	
244.700	19.566	
244.800	3.218	
244.900	-23.855	
245.000	28.284	
245.100	-0.377	
245.200	2.096	
245.300	-0.941	
245.400	19.927	
245.500	20.131	
245.600	-13.706	
245.700	4.182	
245.800	12.627	
245.900	-3.535	
246.000	-7.536	
246.100	0.008	
246.200	8.734	
246.300	-17.224	
246.400	9.627	
246.500	6.554	
246.600	3.133	
246.700	1.331	
246.800	-9.177	
246.900	16.211	
247.000	-0.934	
247.100	-1.727	
247.200	7.343	
247.300	-19.017	
247.400	22.837	
247.500	14.736	
247.600	1.635	
247.700	-8.537	
247.800	0.293	
247.900	-10.154	
248.000	4.783	
248.100	-5.479	
248.200	3.265	
248.300	-13.108	
248.400	-8.424	
248.500	-2.406	
248.600	-5.577	
248.700	-4.805	
248.800	10.683	
248.900	4.604	
249.000	1.520	
249.100	4.209	
249.200	-10.321	
249.300	14.540	
249.400	-1.754	
249.500	-0.080	
249.600	-2.980	
249.700	-2.287	
249.800	-7.496	
249.900	5.505	
250.000	-13.169	
250.100	-6.478	
250.200	-6.559	
250.300	-16.384	
250.400	-0.438	
250.500	-5.115	
250.600	-5.074	
250.700	-12.642	
250.800	3.400	
250.900	-15.310	
251.000	-9.202	
251.100	12.504	
251.200	-14.627	
251.300	-5.438	
251.400	-1.495	
251.500	-14.912	
251.600	-16.712	
251.700	4.659	
251.800	-6.184	
251.900	-22.335	
252.000	-21.322	
252.100	-11.991	
252.200	8.820	
252.300	5.511	
252.400	1.102	
252.500	-18.927	
252.600	-33.724	
252.700	-0.517	
252.800	-6.903	
252.900	2.401	
253.000	-9.727	
253.100	-13.250	
253.200	-34.595	
253.300	-8.529	
253.400	-8.368	
253.500	5.325	
253.600	-10.040	
253.700	-5.850	
253.800	-21.150	
253.900	5.788	
254.000	-9.780	
254.100	-6.245	
254.200	-23.009	
254.300	-27.193	
254.400	-15.992	
254.500	-2.819	
254.600	1.819	
254.700	-20.152	
254.800	-29.121	
254.900	-12.543	
255.000	-13.284	
255.100	-8.033	
255.200	-18.728	
255.300	-23.677	
255.400	-5.957	
255.500	-19.228	
255.600	-16.805	
255.700	-27.544	
255.800	3.580	
255.900	-10.236	
256.000	1.755	
256.100	-23.270	
256.200	-23.128	
256.300	-14.464	
256.400	-22.329	
256.500	-20.071	
256.600	-3.814	
256.700	-33.699	
256.800	-16.134	
256.900	-6.596	
257.000	-27.155	
257.100	-17.070	
257.200	-12.160	
257.300	-11.808	
257.400	-18.095	
257.500	-14.555	
257.600	-11.297	
257.700	-17.733	
257.800	-11.059	
257.900	-3.806	
258.000	-26.077	
258.100	-11.708	
258.200	1.523	
258.300	-13.165	
258.400	-30.068	
258.500	-16.030	
258.600	-16.569	
258.700	-22.317	
258.800	-7.507	
258.900	-23.110	
259.000	-31.655	
259.100	-13.861	
259.200	-11.337	
259.300	-34.559	
259.400	-12.460	
259.500	-26.858	
259.600	-13.553	
259.700	-14.372	
259.800	-1.508	
259.900	-18.149	
260.000	-9.661	
260.100	-28.882	
260.200	-17.145	
260.300	-12.598	
260.400	-17.959	
260.500	-5.942	
260.600	-18.062	
260.700	-10.683	
260.800	-31.182	
260.900	-12.221	
261.000	-21.593	
261.100	-29.938	
261.200	-12.145	
261.300	-22.794	
261.400	-3.760	
261.500	-12.167	
261.600	-19.521	
261.700	-36.325	
261.800	-21.217	
261.900	-13.874	
262.000	-31.493	
262.100	-29.585	
262.200	5.364	
262.300	-14.412	
262.400	-26.141	
262.500	-22.534	
262.600	-28.473	
262.700	-11.149	
262.800	14.273	
262.900	-16.345	
263.000	-23.708	
263.100	-26.856	
263.200	-7.241	
263.300	-22.066	
263.400	-19.607	
263.500	-17.249	
263.600	-17.936	
263.700	-37.206	
263.800	9.744	
263.900	-8.376	
264.000	-18.460	
264.100	-13.018	
264.200	-32.395	
264.300	-36.984	
264.400	-10.046	
264.500	-18.851	
264.600	-23.511	
264.700	-20.624	
264.800	-7.557	
264.900	-24.987	
265.000	-17.541	
265.100	-8.264	
265.200	-14.023	
265.300	-11.946	
265.400	-27.198	
265.500	-18.583	
265.600	-20.888	
265.700	-14.590	
265.800	-13.791	
265.900	-27.130	
266.000	-14.738	
266.100	-21.156	
266.200	-8.224	
266.300	-9.264	
266.400	-21.201	
266.500	-28.561	
266.600	-40.377	
266.700	-2.950	
266.800	-4.742	
266.900	-15.263	
267.000	-12.930	
267.100	-28.953	
267.200	-13.861	
267.300	-8.777	
267.400	-10.853	
267.500	-5.312	
267.600	-14.725	
267.700	-20.774	
267.800	-30.139	
267.900	-19.399	
268.000	-31.028	
268.100	-21.256	
268.200	-14.537	
268.300	-23.909	
268.400	-16.034	
268.500	-5.235	
268.600	-11.537	
268.700	-16.256	
268.800	-36.600	
268.900	-23.088	
269.000	-11.679	
269.100	-0.283	
269.200	-17.490	
269.300	-21.190	
269.400	-21.600	
269.500	-20.183	
269.600	2.938	
269.700	-14.820	
269.800	-19.095	
269.900	-25.144	
270.000	-25.149	
270.100	-25.126	
270.200	-22.773	
270.300	-8.573	
270.400	-15.756	
270.500	-24.129	
270.600	-17.691	
270.700	-24.676	
270.800	-8.407	
270.900	-23.082	
271.000	-7.088	
271.100	-28.928	
271.200	-23.026	
271.300	-9.338	
271.400	-13.826	
271.500	-16.628	
271.600	-30.465	
271.700	-5.551	
271.800	-23.259	
271.900	-16.019	
272.000	-17.050	
272.100	-22.025	
272.200	-31.391	
272.300	-19.677	
272.400	-30.469	
272.500	-22.214	
272.600	-2.379	
272.700	-9.399	
272.800	-26.987	
272.900	-28.443	
273.000	-20.036	
273.100	-22.115	
273.200	-22.892	
273.300	-16.743	
273.400	-9.480	
273.500	-13.474	
273.600	-11.307	
273.700	-18.123	
273.800	1.896	
273.900	-31.230	
274.000	-24.342	
274.100	-26.328	
274.200	-47.714	
274.300	-22.013	
274.400	-2.410	
274.500	-16.033	
274.600	-6.906	
274.700	-17.884	
274.800	-21.083	
274.900	-49.164	
275.000	-5.861	
275.100	-10.319	
275.200	-21.524	
275.300	-12.547	
275.400	-10.177	
275.500	-16.006	
275.600	-1.930	
275.700	-27.645	
275.800	-21.380	
275.900	-25.987	
276.000	-20.966	
276.100	-7.343	
276.200	-10.749	
276.300	-27.943	
276.400	-26.462	
276.500	-18.026	
276.600	-18.107	
276.700	-13.822	
276.800	-19.018	
276.900	-23.519	
277.000	-10.012	
277.100	-23.629	
277.200	-20.413	
277.300	-11.953	
277.400	-12.050	
277.500	-21.880	
277.600	-17.257	
277.700	-12.691	
277.800	-33.087	
277.900	-10.340	
278.000	-20.861	
278.100	-4.901	
278.200	-28.074	
278.300	-14.243	
278.400	-26.104	
278.500	-11.649	
278.600	-10.881	
278.700	-16.225	
278.800	-20.829	
278.900	-28.179	
279.000	-16.920	
279.100	-14.332	
279.200	-31.382	
279.300	-9.580	
279.400	-13.750	
279.500	-1.152	
279.600	-2.942	
279.700	-19.777	
279.800	-23.020	
279.900	-4.203	
280.000	-18.987	
280.100	-12.401	
280.200	-29.099	
280.300	-21.079	
280.400	-18.070	
280.500	-44.558	
280.600	-26.631	
280.700	1.388	
280.800	-9.833	
280.900	-10.446	
281.000	-15.186	
281.100	-31.998	
281.200	-19.085	
281.300	-13.807	
281.400	-24.403	
281.500	-13.857	
281.600	-21.577	
281.700	-25.206	
281.800	-36.382	
281.900	-28.507	
282.000	-15.264	
282.100	-13.566	
282.200	-24.653	
282.300	-25.557	
282.400	-18.144	
282.500	-16.450	
282.600	-26.241	
282.700	-30.148	
282.800	-3.813	
282.900	-10.714	
283.000	-16.428	
283.100	-27.086	
283.200	-6.327	
283.300	-13.956	
283.400	-17.959	
283.500	-24.511	
283.600	-14.613	
283.700	-8.775	
283.800	-16.405	
283.900	-21.650	
284.000	-17.962	
284.100	-18.342	
284.200	-15.123	
284.300	-16.577	
284.400	-16.657	
284.500	8.104	
284.600	-24.837	
284.700	-24.124	
284.800	1.352	
284.900	-16.283	
285.000	2.723	
285.100	-16.082	
285.200	-12.470	
285.300	-15.043	
285.400	-14.143	
285.500	-15.584	
285.600	-19.309	
285.700	-29.943	
285.800	-5.119	
285.900	-24.744	
286.000	-21.542	
286.100	8.169	
286.200	-19.059	
286.300	-9.881	
286.400	-8.898	
286.500	-17.837	
286.600	3.979	
286.700	-7.716	
286.800	-13.934	
286.900	-22.996	
287.000	-16.807	
287.100	-26.208	
287.200	-10.405	
287.300	-7.630	
287.400	-3.054	
287.500	-29.003	
287.600	-17.630	
287.700	-26.071	
287.800	-4.786	
287.900	-11.821	
288.000	-9.115	
288.100	-21.793	
288.200	-11.616	
288.300	-8.114	
288.400	-18.144	
288.500	-25.448	
288.600	-14.824	
288.700	-6.733	
288.800	-14.732	
288.900	-5.906	
289.000	-17.746	
289.100	-3.376	
289.200	-13.583	
289.300	-24.229	
289.400	-20.717	
289.500	-15.735	
289.600	-18.678	
289.700	-29.241	
289.800	-10.952	
289.900	-18.919	
290.000	-18.089	
290.100	-38.111	
290.200	5.461	
290.300	3.259	
290.400	-29.515	
290.500	-12.800	
290.600	-11.183	
290.700	-9.586	
290.800	0.782	
290.900	-16.926	
291.000	3.572	
291.100	-18.891	
291.200	-10.222	
291.300	1.504	
291.400	-0.228	
291.500	-2.402	
291.600	-21.004	
291.700	-26.565	
291.800	-6.890	
291.900	3.620	
292.000	-26.983	
292.100	-16.859	
292.200	-10.718	
292.300	-40.065	
292.400	-17.883	
292.500	-9.210	
292.600	-5.051	
292.700	-11.414	
292.800	-15.527	
292.900	-13.111	
293.000	-17.801	
293.100	0.805	
293.200	-25.167	
293.300	-29.696	
293.400	-6.588	
293.500	6.266	
293.600	-9.328	
293.700	-2.831	
293.800	-32.501	
293.900	-28.623	
294.000	-30.760	
294.100	-5.329	
294.200	-2.479	
294.300	-0.966	
294.400	-37.807	
294.500	-9.693	
294.600	-4.975	
294.700	-20.097	
294.800	-6.502	
294.900	-12.873	
295.000	-17.584	
295.100	-21.479	
295.200	-23.142	
295.300	-9.203	
295.400	-12.166	
295.500	-6.802	
295.600	-16.882	
295.700	-24.954	
295.800	-16.857	
295.900	-7.161	
296.000	-27.286	
296.100	-29.719	
296.200	-16.388	
296.300	-5.449	
296.400	-9.162	
296.500	-10.105	
296.600	2.835	
296.700	-7.368	
296.800	-13.744	
296.900	-16.543	
297.000	-11.633	
297.100	-15.440	
297.200	-17.929	
297.300	-17.747	
297.400	-19.221	
297.500	-14.682	
297.600	-7.688	
297.700	-16.951	
297.800	-20.557	
297.900	-6.729	
298.000	-37.492	
298.100	-10.147	
298.200	-14.308	
298.300	-11.936	
298.400	-35.787	
298.500	-11.451	
298.600	-26.501	
298.700	-18.315	
298.800	-16.542	
298.900	-18.299	
299.000	-9.413	
299.100	-26.851	
299.200	-24.871	
299.300	-12.774	
299.400	0.989	
299.500	-12.615	
299.600	-19.765	
299.700	2.520	
299.800	-29.841	
299.900	-22.562	
300.000	11.381	
300.100	1.126	
300.200	-27.506	
300.300	-12.810	
300.400	-12.995	
300.500	-27.260	
300.600	-17.998	
300.700	-4.277	
300.800	-17.707	
300.900	-13.253	
301.000	-26.966	
301.100	-9.751	
301.200	-9.620	
301.300	10.235	
301.400	-9.662	
301.500	-34.657	
301.600	-33.611	
301.700	11.621	
301.800	-4.813	
301.900	-24.813	
302.000	-20.491	
302.100	-10.849	
302.200	-28.017	
302.300	-2.817	
302.400	-14.639	
302.500	-7.065	
302.600	-15.762	
302.700	-46.150	
302.800	-28.235	
302.900	-7.688	
303.000	-16.753	
303.100	5.391	
303.200	-13.670	
303.300	-8.323	
303.400	-33.519	
303.500	-8.764	
303.600	-11.297	
303.700	0.611	
303.800	-22.390	
303.900	-19.148	
304.000	-13.357	
304.100	-7.967	
304.200	-2.480	
304.300	-18.128	
304.400	-15.179	
304.500	-21.485	
304.600	-13.978	
304.700	-7.584	
304.800	-13.985	
304.900	-24.669	
305.000	-27.062	
305.100	-18.154	
305.200	-0.147	
305.300	-29.298	
305.400	-6.104	
305.500	-28.123	
305.600	-5.252	
305.700	-23.020	
305.800	-14.540	
305.900	1.957	
306.000	-0.520	
306.100	-24.028	
306.200	-29.623	
306.300	-13.818	
306.400	-25.648	
306.500	6.043	
306.600	-11.371	
306.700	-12.585	
306.800	-17.180	
306.900	-14.580	
307.000	-5.423	
307.100	-5.498	
307.200	-38.691	
307.300	-6.255	
307.400	-8.357	
307.500	-0.255	
307.600	-24.604	
307.700	-21.967	
307.800	-32.455	
307.900	-14.537	
308.000	2.727	
308.100	-18.855	
308.200	-0.205	
308.300	15.689	
308.400	-6.516	
308.500	-14.835	
308.600	-15.743	
308.700	-15.021	
308.800	-2.549	
308.900	-13.786	
309.000	4.106	
309.100	-11.312	
309.200	-11.401	
309.300	-15.370	
309.400	-15.816	
309.500	4.253	
309.600	-10.729	
309.700	-13.978	
309.800	-28.657	
309.900	-8.925	
310.000	-5.841	
310.100	-19.524	
310.200	-15.278	
310.300	-28.162	
310.400	-6.140	
310.500	-13.315	
310.600	-12.520	
310.700	-7.086	
310.800	-12.391	
310.900	-15.783	
311.000	5.102	
311.100	-2.320	
311.200	-11.073	
311.300	-8.911	
311.400	-7.018	
311.500	-1.202	
311.600	-6.968	
311.700	-27.679	
311.800	-5.626	
311.900	-16.557	
312.000	-12.905	
312.100	-10.371	
312.200	-16.792	
312.300	-1.216	
312.400	1.496	
312.500	-4.526	
312.600	-21.115	
312.700	-18.461	
312.800	-9.115	
312.900	-10.195	
313.000	-17.570	
313.100	-13.689	
313.200	-9.395	
313.300	-31.904	
313.400	-4.534	
313.500	-10.509	
313.600	3.410	
313.700	-5.547	
313.800	-15.944	
313.900	-13.346	
314.000	-22.795	
314.100	-6.463	
314.200	-5.997	
314.300	-12.545	
314.400	-27.844	
314.500	-22.911	
314.600	1.163	
314.700	-0.921	
314.800	-23.712	
314.900	-12.534	
315.000	-6.772	
315.100	-9.778	
315.200	-16.225	
315.300	-19.983	
315.400	10.922	
315.500	-18.798	
315.600	-22.229	
315.700	-10.913	
315.800	-9.145	
315.900	-6.053	
316.000	3.884	
316.100	-21.662	
316.200	-15.949	
316.300	-22.981	
316.400	-11.295	
316.500	-20.943	
316.600	-12.372	
316.700	-7.963	
316.800	-9.111	
316.900	-15.084	
317.000	-10.473	
317.100	-16.315	
317.200	-3.497	
317.300	-14.885	
317.400	-18.267	
317.500	5.649	
317.600	-7.653	
317.700	-4.661	
317.800	3.958	
317.900	-17.284	
318.000	-3.870	
318.100	-21.189	
318.200	-9.369	
318.300	-14.865	
318.400	-4.962	
318.500	-10.899	
318.600	-12.467	
318.700	-2.906	
318.800	-2.122	
318.900	-7.917	
319.000	-17.503	
319.100	-28.175	
319.200	-8.691	
319.300	-10.463	
319.400	10.067	
319.500	-16.117	
319.600	-36.777	
319.700	-13.192	
319.800	-8.240	
319.900	8.495	
320.000	-9.620	
320.100	-7.291	
320.200	-11.285	
320.300	-36.922	
320.400	-7.467	
320.500	-13.094	
320.600	-2.797	
320.700	-6.848	
320.800	-14.315	
320.900	-16.209	
321.000	-26.557	
321.100	-7.314	
321.200	-7.695	
321.300	-13.538	
321.400	-5.735	
321.500	-24.876	
321.600	2.611	
321.700	-5.043	
321.800	-19.195	
321.900	-22.924	
322.000	-24.377	
322.100	-7.201	
322.200	-29.123	
322.300	7.093	
322.400	-7.643	
322.500	-11.754	
322.600	-11.081	
322.700	-23.751	
322.800	-5.915	
322.900	-3.503	
323.000	-8.898	
323.100	-15.165	
323.200	-11.399	
323.300	-11.258	
323.400	2.816	
323.500	-14.842	
323.600	-22.344	
323.700	-26.108	
323.800	-14.295	
323.900	-3.758	
324.000	1.231	
324.100	-13.766	
324.200	-8.847	
324.300	-44.356	
324.400	3.217	
324.500	-11.005	
324.600	-10.073	
324.700	-18.559	
324.800	-18.385	
324.900	-19.273	
325.000	-12.125	
325.100	2.756	
325.200	-10.307	
325.300	0.067	
325.400	-16.236	
325.500	-27.711	
325.600	-6.208	
325.700	-4.644	
325.800	-0.211	
325.900	-9.901	
326.000	-22.111	
326.100	-32.292	
326.200	-10.550	
326.300	-10.012	
326.400	-9.605	
326.500	6.579	
326.600	-9.481	
326.700	-7.914	
326.800	-17.404	
326.900	-11.943	
327.000	-3.242	
327.100	-4.377	
327.200	-22.619	
327.300	-6.053	
327.400	-9.317	
327.500	-10.077	
327.600	-12.601	
327.700	-14.717	
327.800	-11.314	
327.900	-19.794	
328.000	-13.172	
328.100	-18.828	
328.200	-17.981	
328.300	-11.344	
328.400	-18.903	
328.500	-11.098	
328.600	-6.085	
328.700	1.364	
328.800	-7.241	
328.900	-14.332	
329.000	-11.547	
329.100	-30.347	
329.200	-12.502	
329.300	15.781	
329.400	-22.129	
329.500	-22.018	
329.600	-20.693	
329.700	-16.288	
329.800	-12.161	
329.900	-3.211	
330.000	17.769	
330.100	-9.105	
330.200	-7.287	
330.300	-9.398	
330.400	-28.604	
330.500	3.583	
330.600	-2.514	
330.700	6.059	
330.800	-4.468	
330.900	-5.256	
331.000	1.213	
331.100	2.107	
331.200	-15.390	
331.300	-6.730	
331.400	3.934	
331.500	11.344	
331.600	12.606	
331.700	8.236	
331.800	-0.041	
331.900	7.734	
332.000	-1.307	
332.100	12.270	
332.200	16.777	
332.300	15.881	
332.400	3.959	
332.500	3.737	
332.600	16.767	
332.700	20.661	
332.800	31.496	
332.900	3.900	
333.000	1.330	
333.100	5.274	
333.200	11.738	
333.300	27.531	
333.400	16.361	
333.500	20.006	
333.600	-7.560	
333.700	2.118	
333.800	3.450	
333.900	2.877	
334.000	25.749	
334.100	8.091	
334.200	17.895	
334.300	1.895	
334.400	-1.024	
334.500	30.395	
334.600	23.879	
334.700	33.799	
334.800	-7.857	
334.900	14.833	
335.000	19.578	
335.100	18.522	
335.200	28.421	
335.300	-16.534	
335.400	33.785	
335.500	16.972	
335.600	23.428	
335.700	-1.807	
335.800	25.450	
335.900	18.007	
336.000	19.762	
336.100	21.076	
336.200	7.996	
336.300	23.987	
336.400	20.715	
336.500	3.668	
336.600	7.779	
336.700	20.358	
336.800	38.633	
336.900	20.882	
337.000	29.562	
337.100	11.429	
337.200	20.923	
337.300	9.968	
337.400	27.773	
337.500	21.472	
337.600	20.354	
337.700	4.775	
337.800	20.823	
337.900	15.910	
338.000	28.238	
338.100	29.240	
338.200	0.387	
338.300	5.913	
338.400	42.991	
338.500	38.707	
338.600	7.599	
338.700	25.151	
338.800	24.959	
338.900	-6.595	
339.000	11.085	
339.100	49.658	
339.200	15.181	
339.300	37.930	
339.400	30.535	
339.500	24.484	
339.600	32.464	
339.700	28.098	
339.800	26.779	
339.900	9.912	
340.000	8.630	
340.100	10.208	
340.200	38.357	
340.300	11.085	
340.400	31.094	
340.500	31.303	
340.600	31.195	
340.700	18.905	
340.800	17.428	
340.900	20.259	
341.000	30.684	
341.100	15.584	
341.200	21.636	
341.300	11.384	
341.400	30.099	
341.500	26.316	
341.600	31.738	
341.700	9.229	
341.800	19.496	
341.900	22.343	
342.000	22.928	
342.100	22.514	
342.200	51.012	
342.300	28.402	
342.400	26.902	
342.500	21.137	
342.600	27.391	
342.700	9.317	
342.800	29.553	
342.900	19.692	
343.000	28.861	
343.100	40.461	
343.200	17.280	
343.300	33.674	
343.400	36.218	
343.500	39.584	
343.600	25.130	
343.700	28.062	
343.800	34.490	
343.900	25.180	
344.000	30.044	
344.100	9.512	
344.200	15.057	
344.300	24.911	
344.400	21.931	
344.500	38.352	
344.600	21.403	
344.700	17.927	
344.800	6.607	
344.900	22.548	
345.000	63.751	
345.100	26.592	
345.200	32.976	
345.300	22.133	
345.400	10.452	
345.500	26.078	
345.600	15.028	
345.700	46.207	
345.800	34.066	
345.900	28.473	
346.000	20.446	
346.100	23.867	
346.200	24.082	
346.300	38.135	
346.400	37.928	
346.500	12.274	
346.600	30.833	
346.700	28.523	
346.800	29.698	
346.900	7.581	
347.000	40.403	
347.100	30.942	
347.200	39.557	
347.300	33.672	
347.400	15.334	
347.500	37.083	
347.600	36.971	
347.700	29.347	
347.800	28.443	
347.900	41.420	
348.000	19.627	
348.100	35.162	
348.200	17.852	
348.300	17.998	
348.400	24.946	
348.500	45.195	
348.600	23.093	
348.700	30.987	
348.800	26.722	
348.900	38.438	
349.000	34.930	
349.100	23.828	
349.200	31.192	
349.300	24.761	
349.400	44.191	
349.500	28.529	
349.600	29.971	
349.700	29.335	
349.800	33.022	
349.900	24.205	
350.000	25.612	
350.100	32.151	
350.200	34.212	
350.300	29.231	
350.400	38.726	
350.500	22.536	
350.600	29.743	
350.700	28.254	
350.800	34.067	
350.900	27.636	
351.000	31.137	
351.100	36.757	
351.200	31.781	
351.300	28.342	
351.400	52.955	
351.500	24.930	
351.600	34.924	
351.700	25.873	
351.800	26.407	
351.900	17.943	
352.000	39.796	
352.100	20.566	
352.200	30.793	
352.300	25.878	
352.400	20.751	
352.500	47.842	
352.600	46.989	
352.700	46.184	
352.800	49.264	
352.900	29.941	
353.000	32.339	
353.100	25.169	
353.200	35.462	
353.300	29.190	
353.400	25.039	
353.500	15.834	
353.600	22.512	
353.700	33.421	
353.800	33.769	
353.900	16.887	
354.000	31.657	
354.100	15.861	
354.200	38.161	
354.300	32.467	
354.400	47.648	
354.500	33.795	
354.600	35.397	
354.700	25.316	
354.800	27.860	
354.900	32.889	
355.000	25.441	
355.100	25.192	
355.200	45.143	
355.300	15.328	
355.400	30.339	
355.500	30.002	
355.600	40.328	
355.700	36.048	
355.800	31.368	
355.900	28.565	
356.000	32.089	
356.100	7.871	
356.200	38.534	
356.300	45.238	
356.400	7.046	
356.500	37.221	
356.600	34.180	
356.700	34.827	
356.800	23.174	
356.900	24.201	
357.000	23.565	
357.100	37.324	
357.200	22.992	
357.300	32.628	
357.400	48.018	
357.500	22.032	
357.600	5.786	
357.700	28.163	
357.800	36.710	
357.900	40.615	
358.000	30.366	
358.100	24.537	
358.200	35.251	
358.300	38.113	
358.400	24.147	
358.500	35.232	
358.600	50.627	
358.700	31.810	
358.800	15.290	
358.900	35.390	
359.000	21.906	
359.100	40.428	
359.200	45.142	
359.300	-7.721	
359.400	31.918	
359.500	34.378	
359.600	37.156	
359.700	37.874	
359.800	38.488	
359.900	10.006	
360.000	26.093	
360.100	28.972	
360.200	31.119	
360.300	29.710	
360.400	40.969	
360.500	19.231	
360.600	18.239	
360.700	28.500	
360.800	47.169	
360.900	41.779	
361.000	18.223	
361.100	18.133	
361.200	28.545	
361.300	43.957	
361.400	46.708	
361.500	23.211	
361.600	13.154	
361.700	21.222	
361.800	38.286	
361.900	35.052	
362.000	17.863	
362.100	42.332	
362.200	22.729	
362.300	43.046	
362.400	36.294	
362.500	42.054	
362.600	32.671	
362.700	31.303	
362.800	33.768	
362.900	20.045	
363.000	35.674	
363.100	28.886	
363.200	34.277	
363.300	32.594	
363.400	31.176	
363.500	33.600	
363.600	46.150	
363.700	34.529	
363.800	39.162	
363.900	31.835	
364.000	27.867	
364.100	21.110	
364.200	55.022	
364.300	36.084	
364.400	26.150	
364.500	28.800	
364.600	7.099	
364.700	31.685	
364.800	49.381	
364.900	37.458	
365.000	39.761	
365.100	25.443	
365.200	30.912	
365.300	17.368	
365.400	49.514	
365.500	41.231	
365.600	17.965	
365.700	9.884	
365.800	26.528	
365.900	19.598	
366.000	19.786	
366.100	37.743	
366.200	53.414	
366.300	24.670	
366.400	38.383	
366.500	22.024	
366.600	24.450	
366.700	27.604	
366.800	26.747	
366.900	20.822	
367.000	27.752	
367.100	45.368	
367.200	32.846	
367.300	31.394	
367.400	38.855	
367.500	18.492	
367.600	49.100	
367.700	20.278	
367.800	42.239	
367.900	32.420	
368.000	29.245	
368.100	27.704	
368.200	31.000	
368.300	41.778	
368.400	36.105	
368.500	18.758	
368.600	29.416	
368.700	28.735	
368.800	41.002	
368.900	37.846	
369.000	37.435	
369.100	26.870	
369.200	37.574	
369.300	18.454	
369.400	34.612	
369.500	47.260	
369.600	23.832	
369.700	37.421	
369.800	27.953	
369.900	19.602	
370.000	39.636	
370.100	34.808	
370.200	11.278	
370.300	29.606	
370.400	9.534	
370.500	17.744	
370.600	41.127	
370.700	39.795	
370.800	54.291	
370.900	31.127	
371.000	37.774	
371.100	24.835	
371.200	38.618	
371.300	30.016	
371.400	20.016	
371.500	28.004	
371.600	43.611	
371.700	43.824	
371.800	22.404	
371.900	14.753	
372.000	38.967	
372.100	26.252	
372.200	33.570	
372.300	22.505	
372.400	32.474	
372.500	28.305	
372.600	35.701	
372.700	17.118	
372.800	29.476	
372.900	23.838	
373.000	40.931	
373.100	27.359	
373.200	32.857	
373.300	19.739	
373.400	34.284	
373.500	40.300	
373.600	44.535	
373.700	41.120	
373.800	15.608	
373.900	13.056	
374.000	36.725	
374.100	34.245	
374.200	36.295	
374.300	22.010	
374.400	35.952	
374.500	38.426	
374.600	42.249	
374.700	13.975	
374.800	35.986	
374.900	21.704	
375.000	33.348	
375.100	28.180	
375.200	17.451	
375.300	28.858	
375.400	38.041	
375.500	33.954	
375.600	33.786	
375.700	11.534	
375.800	14.765	
375.900	30.016	
376.000	52.964	
376.100	40.164	
376.200	16.594	
376.300	20.232	
376.400	21.774	
376.500	17.812	
376.600	45.870	
376.700	39.193	
376.800	15.393	
376.900	29.370	
377.000	13.126	
377.100	10.148	
377.200	29.365	
377.300	18.336	
377.400	41.912	
377.500	34.227	
377.600	12.599	
377.700	34.921	
377.800	30.005	
377.900	34.527	
378.000	19.087	
378.100	28.326	
378.200	31.914	
378.300	28.270	
378.400	36.035	
378.500	27.343	
378.600	19.051	
378.700	20.978	
378.800	24.093	
378.900	50.447	
379.000	31.846	
379.100	38.625	
379.200	18.172	
379.300	24.654	
379.400	37.594	
379.500	22.755	
379.600	28.171	
379.700	13.791	
379.800	12.502	
379.900	29.480	
380.000	46.051	
380.100	35.464	
380.200	28.295	
380.300	19.431	
380.400	14.240	
380.500	20.555	
380.600	25.252	
380.700	32.660	
380.800	34.666	
380.900	6.140	
381.000	37.695	
381.100	20.332	
381.200	22.035	
381.300	37.287	
381.400	28.730	
381.500	21.167	
381.600	9.406	
381.700	39.894	
381.800	25.707	
381.900	30.307	
382.000	29.017	
382.100	31.849	
382.200	30.056	
382.300	10.717	
382.400	50.125	
382.500	15.273	
382.600	13.894	
382.700	38.199	
382.800	26.589	
382.900	26.540	
383.000	26.035	
383.100	34.902	
383.200	25.010	
383.300	35.705	
383.400	4.449	
383.500	37.499	
383.600	30.019	
383.700	12.049	
383.800	7.555	
383.900	22.310	
384.000	34.885	
384.100	11.561	
384.200	27.123	
384.300	53.596	
384.400	8.713	
384.500	25.247	
384.600	34.363	
384.700	24.401	
384.800	10.581	
384.900	35.927	
385.000	13.832	
385.100	21.412	
385.200	28.044	
385.300	29.492	
385.400	28.433	
385.500	19.044	
385.600	30.701	
385.700	11.482	
385.800	15.522	
385.900	36.595	
386.000	31.093	
386.100	14.197	
386.200	10.295	
386.300	29.823	
386.400	45.548	
386.500	32.236	
386.600	40.934	
386.700	16.722	
386.800	28.283	
386.900	26.761	
387.000	4.760	
387.100	39.405	
387.200	27.741	
387.300	29.017	
387.400	28.875	
387.500	37.829	
387.600	11.209	
387.700	37.272	
387.800	33.742	
387.900	26.083	
388.000	10.478	
388.100	14.683	
388.200	24.010	
388.300	37.252	
388.400	13.229	
388.500	25.345	
388.600	40.183	
388.700	37.812	
388.800	22.727	
388.900	42.498	
389.000	23.189	
389.100	28.166	
389.200	27.184	
389.300	37.981	
389.400	23.043	
389.500	29.304	
389.600	34.821	
389.700	15.774	
389.800	17.845	
389.900	19.604	
390.000	40.144	
390.100	25.096	
390.200	25.683	
390.300	12.462	
390.400	30.265	
390.500	27.847	
390.600	28.050	
390.700	14.376	
390.800	12.096	
390.900	13.264	
391.000	28.208	
391.100	5.705	
391.200	21.406	
391.300	21.781	
391.400	21.666	
391.500	7.738	
391.600	4.563	
391.700	5.367	
391.800	16.553	
391.900	11.503	
392.000	-1.212	
392.100	27.079	
392.200	11.213	
392.300	29.631	
392.400	11.268	
392.500	6.121	
392.600	11.640	
392.700	-1.218	
392.800	14.145	
392.900	15.637	
393.000	9.094	
393.100	9.035	
393.200	2.269	
393.300	13.494	
393.400	16.983	
393.500	0.989	
393.600	33.439	
393.700	12.214	
393.800	-8.716	
393.900	17.158	
394.000	5.891	
394.100	-1.157	
394.200	-0.358	
394.300	22.840	
394.400	0.849	
394.500	-17.672	
394.600	1.321	
394.700	11.670	
394.800	5.694	
394.900	15.398	
395.000	14.606	
395.100	-13.801	
395.200	0.887	
395.300	14.076	
395.400	5.928	
395.500	6.437	
395.600	0.258	
395.700	8.762	
395.800	20.008	
395.900	4.722	
396.000	5.879	
396.100	0.677	
396.200	-6.484	
396.300	-6.364	
396.400	9.102	
396.500	9.431	
396.600	2.235	
396.700	-17.016	
396.800	-3.982	
396.900	4.633	
397.000	20.810	
397.100	2.172	
397.200	-0.482	
397.300	9.422	
397.400	-7.304	
397.500	2.939	
397.600	5.517	
397.700	7.707	
397.800	6.024	
397.900	-3.804	
398.000	-4.611	
398.100	-10.867	
398.200	1.014	
398.300	-3.598	
398.400	-5.083	
398.500	-3.224	
398.600	-23.185	
398.700	2.564	
398.800	4.609	
398.900	-2.975	
399.000	-24.208	
399.100	13.055	
399.200	6.336	
399.300	14.959	
399.400	-7.452	
399.500	-13.875	
399.600	-20.503	
399.700	-8.056	
399.800	-7.809	
399.900	15.569	
400.000	4.540	
400.100	-25.132	
400.200	-2.423	
400.300	14.153	
400.400	-7.715	
400.500	2.466	
400.600	-9.889	
400.700	-23.660	
400.800	-4.175	
400.900	-18.405	
401.000	-15.034	
401.100	-13.525	
401.200	-4.657	
401.300	-14.857	
401.400	-6.127	
401.500	-20.677	
401.600	7.041	
401.700	4.470	
401.800	-26.818	
401.900	-5.287	
402.000	-1.627	
402.100	-14.141	
402.200	-7.750	
402.300	-26.256	
402.400	0.090	
402.500	-20.214	
402.600	-4.236	
402.700	-5.854	
402.800	-3.371	
402.900	-5.976	
403.000	-9.892	
403.100	-19.199	
403.200	-15.420	
403.300	-23.978	
403.400	6.668	
403.500	-21.209	
403.600	-21.955	
403.700	-3.640	
403.800	-11.958	
403.900	-12.275	
404.000	-9.728	
404.100	-17.327	
404.200	-28.669	
404.300	-17.758	
404.400	-12.880	
404.500	-9.225	
404.600	-3.678	
404.700	-7.721	
404.800	0.917	
404.900	-25.478	
405.000	-5.830	
405.100	-19.718	
405.200	-6.649	
405.300	-5.528	
405.400	-9.974	
405.500	-14.940	
405.600	-15.897	
405.700	-17.863	
405.800	-0.807	
405.900	-8.318	
406.000	-22.080	
406.100	-22.375	
406.200	-20.603	
406.300	-10.907	
406.400	-11.556	
406.500	-2.365	
406.600	-9.477	
406.700	-8.916	
406.800	-4.607	
406.900	-3.579	
407.000	-21.351	
407.100	-14.962	
407.200	-16.523	
407.300	-33.002	
407.400	-5.471	
407.500	3.404	
407.600	-23.350	
407.700	-7.425	
407.800	-25.195	
407.900	-13.764	
408.000	-11.804	
408.100	-23.304	
408.200	-7.051	
408.300	-25.927	
408.400	-24.766	
408.500	-40.024	
408.600	-16.344	
408.700	-14.814	
408.800	-14.806	
408.900	-25.055	
409.000	-16.057	
409.100	-13.349	
409.200	-22.540	
409.300	3.098	
409.400	-11.012	
409.500	-15.416	
409.600	-38.937	
409.700	-10.254	
409.800	-15.201	
409.900	-16.811	
410.000	-15.086	
410.100	-32.675	
410.200	-13.133	
410.300	-2.095	
410.400	-22.064	
410.500	-7.985	
410.600	1.874	
410.700	-21.443	
410.800	-14.153	
410.900	-16.214	
411.000	-25.655	
411.100	-23.775	
411.200	-15.974	
411.300	-16.686	
411.400	-39.405	
411.500	-4.514	
411.600	-1.982	
411.700	-5.368	
411.800	-9.668	
411.900	-23.621	
412.000	-25.730	
412.100	-9.985	
412.200	-17.418	
412.300	-17.033	
412.400	-12.441	
412.500	-26.469	
412.600	-27.726	
412.700	-12.892	
412.800	-9.290	
412.900	-1.775	
413.000	-23.361	
413.100	-33.080	
413.200	-3.835	
413.300	-38.772	
413.400	-6.322	
413.500	-13.313	
413.600	-32.913	
413.700	-25.154	
413.800	-8.677	
413.900	-20.795	
414.000	-30.635	
414.100	2.618	
414.200	-7.530	
414.300	-29.396	
414.400	-16.352	
414.500	-25.173	
414.600	-11.683	
414.700	-15.231	
414.800	-12.244	
414.900	-10.705	
415.000	-17.838	
415.100	-11.887	
415.200	-15.196	
415.300	-15.210	
415.400	-13.763	
415.500	-32.993	
415.600	-25.339	
415.700	-2.161	
415.800	-14.864	
415.900	-21.575	
416.000	-43.513	
416.100	4.944	
416.200	-2.034	
416.300	-21.877	
416.400	-18.663	
416.500	-27.296	
416.600	-16.576	
416.700	-8.325	
416.800	-10.337	
416.900	-18.501	
417.000	-18.028	
417.100	-12.899	
417.200	-28.085	
417.300	-18.053	
417.400	-12.130	
417.500	-15.794	
417.600	-22.464	
417.700	-32.466	
417.800	-6.894	
417.900	-15.601	
418.000	-25.029	
418.100	7.564	
418.200	-15.484	
418.300	-11.698	
418.400	-32.694	
418.500	-8.330	
418.600	-8.354	
418.700	-20.521	
418.800	-18.218	
418.900	-37.508	
419.000	-21.399	
419.100	-9.771	
419.200	-23.018	
419.300	-29.497	
419.400	-22.877	
419.500	-28.811	
419.600	-19.043	
419.700	-8.559	
419.800	-20.224	
419.900	-10.091	
420.000	-4.845	
420.100	-25.963	
420.200	-11.519	
420.300	-14.931	
420.400	-32.922	
420.500	-14.412	
420.600	-25.864	
420.700	-4.267	
420.800	-13.660	
420.900	-15.857	
421.000	-15.925	
421.100	-14.841	
421.200	-9.377	
421.300	-30.580	
421.400	-21.514	
421.500	-3.676	
421.600	-27.857	
421.700	-22.156	
421.800	-40.773	
421.900	-17.625	
422.000	-4.363	
422.100	-25.159	
422.200	-25.090	
422.300	-19.595	
422.400	-18.778	
422.500	-19.882	
422.600	-15.655	
422.700	-16.619	
422.800	-33.187	
422.900	-21.230	
423.000	-26.293	
423.100	-31.553	
423.200	-20.337	
423.300	-27.648	
423.400	-5.763	
423.500	-45.114	
423.600	-11.951	
423.700	-39.252	
423.800	-29.237	
423.900	-14.651	
424.000	-25.142	
424.100	-6.188	
424.200	-9.592	
424.300	-26.140	
424.400	-20.794	
424.500	-30.216	
424.600	-20.904	
424.700	-18.012	
424.800	-16.949	
424.900	-20.367	
425.000	-30.546	
425.100	-20.141	
425.200	-19.280	
425.300	-36.173	
425.400	-33.118	
425.500	-27.325	
425.600	-6.827	
425.700	-25.257	
425.800	-14.539	
425.900	-17.722	
426.000	-14.814	
426.100	-21.120	
426.200	-32.447	
426.300	-7.998	
426.400	-30.224	
426.500	-16.115	
426.600	-39.050	
426.700	-23.207	
426.800	-4.101	
426.900	-29.674	
427.000	-22.497	
427.100	-32.680	
427.200	-24.288	
427.300	-13.097	
427.400	-4.532	
427.500	-20.725	
427.600	-11.228	
427.700	-32.060	
427.800	-11.576	
427.900	-18.311	
428.000	-16.672	
428.100	-13.591	
428.200	-30.527	
428.300	-41.789	
428.400	-26.650	
428.500	-3.704	
428.600	-8.462	
428.700	-20.779	
428.800	-18.158	
428.900	-21.534	
429.000	-5.047	
429.100	-32.736	
429.200	-8.088	
429.300	-31.004	
429.400	-35.588	
429.500	-17.486	
429.600	-13.349	
429.700	-24.129	
429.800	3.344	
429.900	-7.994	
430.000	-28.721	
430.100	-25.082	
430.200	-15.047	
430.300	-41.699	
430.400	-18.952	
430.500	-19.229	
430.600	-8.738	
430.700	-31.469	
430.800	-20.382	
430.900	-10.754	
431.000	-1.559	
431.100	-30.576	
431.200	-25.231	
431.300	-19.205	
431.400	-24.084	
431.500	2.894	
431.600	-13.933	
431.700	-29.581	
431.800	-50.996	
431.900	-29.014	
432.000	-16.979	
432.100	3.429	
432.200	-13.953	
432.300	-22.925	
432.400	-34.304	
432.500	-8.881	
432.600	-24.950	
432.700	-13.648	
432.800	-13.584	
432.900	-14.855	
433.000	-27.963	
433.100	-37.707	
433.200	-16.605	
433.300	-10.496	
433.400	-20.354	
433.500	-6.898	
433.600	-31.119	
433.700	-18.437	
433.800	-11.983	
433.900	-21.911	
434.000	-33.163	
434.100	-17.949	
434.200	-24.104	
434.300	-20.046	
434.400	-18.190	
434.500	-11.748	
434.600	-23.959	
434.700	-26.620	
434.800	-23.022	
434.900	-25.219	
435.000	-14.441	
435.100	-9.712	
435.200	-28.813	
435.300	-35.928	
435.400	-28.649	
435.500	-13.193	
435.600	-9.742	
435.700	-29.588	
435.800	-34.939	
435.900	-12.298	
436.000	-17.227	
436.100	-10.860	
436.200	-36.572	
436.300	-32.764	
436.400	-35.895	
436.500	-14.894	
436.600	-2.656	
436.700	-7.990	
436.800	-22.325	
436.900	-29.441	
437.000	-24.987	
437.100	-32.638	
437.200	-4.680	
437.300	1.762	
437.400	-30.332	
437.500	-20.010	
437.600	-5.620	
437.700	-14.574	
437.800	-13.086	
437.900	-16.891	
438.000	0.800	
438.100	-2.965	
438.200	-25.892	
438.300	-25.309	
438.400	-3.187	
438.500	0.518	
438.600	-14.601	
438.700	-4.725	
438.800	-29.613	
438.900	-12.775	
439.000	-8.597	
439.100	-10.477	
439.200	-13.434	
439.300	-42.964	
439.400	-11.556	
439.500	-29.444	
439.600	-17.400	
439.700	-0.767	
439.800	-12.393	
439.900	-19.330	
440.000	-18.900	
440.100	-3.256	
440.200	-5.347	
440.300	-11.247	
440.400	-18.620	
440.500	-15.857	
440.600	-37.973	
440.700	-39.030	
440.800	-0.320	
440.900	-14.146	
441.000	-24.855	
441.100	-20.738	
441.200	-38.191	
441.300	-3.086	
441.400	-11.391	
441.500	1.957	
441.600	-5.473	
441.700	-38.356	
441.800	-20.241	
441.900	-10.013	
442.000	-13.978	
442.100	-12.471	
442.200	-33.260	
442.300	-14.859	
442.400	-1.685	
442.500	-7.624	
442.600	3.047	
442.700	-23.313	
442.800	-19.319	
442.900	-27.891	
443.000	-28.712	
443.100	-8.651	
443.200	-12.291	
443.300	-13.823	
443.400	-24.728	
443.500	-33.710	
443.600	-9.308	
443.700	21.075	
443.800	-14.654	
443.900	-12.049	
444.000	-22.099	
444.100	-32.940	
444.200	-14.885	
444.300	2.402	
444.400	-3.015	
444.500	-29.599	
444.600	-16.587	
444.700	-8.807	
444.800	-5.837	
444.900	-2.822	
445.000	-13.815	
445.100	-2.770	
445.200	-22.407	
445.300	-21.526	
445.400	2.041	
445.500	-25.488	
445.600	-9.530	
445.700	-9.871	
445.800	-29.285	
445.900	-21.944	
446.000	-12.968	
446.100	-1.482	
446.200	-12.517	
446.300	-28.009	
446.400	-12.847	
446.500	0.792	
446.600	-9.976	
446.700	3.687	
446.800	-16.638	
446.900	-12.185	
447.000	-10.247	
447.100	-21.216	
447.200	-7.762	
447.300	-19.870	
447.400	-20.867	
447.500	-24.263	
447.600	-26.235	
447.700	-15.669	
447.800	-17.261	
447.900	-24.846	
448.000	-14.035	
448.100	-24.794	
448.200	-40.043	
448.300	10.535	
448.400	9.427	
448.500	-17.985	
448.600	-29.710	
448.700	-20.934	
448.800	-14.724	
448.900	-4.615	
449.000	-19.343	
449.100	-16.068	
449.200	-16.352	
449.300	-7.689	
449.400	-13.972	
449.500	-1.036	
449.600	-14.893	
449.700	-25.407	
449.800	-11.644	
449.900	-25.725	
450.000	-13.561	
450.100	-7.977	
450.200	-9.500	
450.300	-15.134	
450.400	-38.310	
450.500	-25.148	
450.600	-18.078	
450.700	-8.635	
450.800	-8.053	
450.900	-29.445	
451.000	-28.503	
451.100	-16.915	
451.200	-18.625	
451.300	-8.110	
451.400	-8.045	
451.500	-19.597	
451.600	-26.272	
451.700	-18.223	
451.800	-4.877	
451.900	16.373	
452.000	-17.381	
452.100	-35.557	
452.200	-23.134	
452.300	-14.318	
452.400	-28.861	
452.500	-10.122	
452.600	-8.597	
452.700	-0.689	
452.800	-4.482	
452.900	-13.611	
453.000	-10.267	
453.100	-0.171	
453.200	-19.344	
453.300	-10.384	
453.400	-11.985	
453.500	-20.579	
453.600	-18.982	
453.700	-3.179	
453.800	-22.783	
453.900	-16.057	
454.000	-21.711	
454.100	14.349	
454.200	-24.998	
454.300	-20.125	
454.400	-9.807	
454.500	-17.507	
454.600	-14.210	
454.700	-16.332	
454.800	1.846	
454.900	-13.760	
455.000	-18.788	
455.100	-12.864	
455.200	-17.322	
455.300	-7.667	
455.400	-7.174	
455.500	-10.935	
455.600	-2.855	
455.700	-31.569	
455.800	-8.848	
455.900	-7.617	
456.000	-15.310	
456.100	-14.964	
456.200	-20.560	
456.300	-14.821	
456.400	-28.006	
456.500	-27.875	
456.600	1.237	
456.700	-16.479	
456.800	-9.490	
456.900	10.223	
457.000	-6.072	
457.100	-23.186	
457.200	5.533	
457.300	-14.676	
457.400	-13.269	
457.500	-11.965	
457.600	-10.630	
457.700	-37.274	
457.800	-3.088	
457.900	-23.220	
458.000	-18.752	
458.100	-10.502	
458.200	-9.828	
458.300	-20.626	
458.400	3.472	
458.500	-13.299	
458.600	-18.748	
458.700	-22.185	
458.800	-11.314	
458.900	-11.814	
459.000	2.604	
459.100	-23.901	
459.200	-32.374	
459.300	6.234	
459.400	-21.325	
459.500	9.308	
459.600	-20.966	
459.700	-7.691	
459.800	-13.860	
459.900	-35.227	
460.000	2.455	
460.100	-13.549	
460.200	-2.590	
460.300	-22.019	
460.400	-15.678	
460.500	-0.409	
460.600	-6.059	
460.700	-22.662	
460.800	-9.840	
460.900	-27.819	
461.000	-9.676	
461.100	-6.655	
461.200	-6.513	
461.300	2.682	
461.400	-11.719	
461.500	-18.295	
461.600	-36.030	
461.700	-15.235	
461.800	-5.710	
461.900	-16.301	
462.000	-16.528	
462.100	-12.780	
462.200	-23.237	
462.300	-28.386	
462.400	-9.311	
462.500	-19.258	
462.600	-19.528	
462.700	-15.183	
462.800	-17.984	
462.900	-4.272	
463.000	-24.890	
463.100	-8.146	
463.200	-8.494	
463.300	-12.500	
463.400	-19.977	
463.500	-11.754	
463.600	-22.899	
463.700	-18.395	
463.800	-2.115	
463.900	-22.139	
464.000	-2.858	
464.100	-6.318	
464.200	-20.703	
464.300	23.253	
464.400	-25.491	
464.500	-18.904	
464.600	-1.399	
464.700	-15.570	
464.800	-21.817	
464.900	-2.115	
465.000	-18.361	
465.100	-21.548	
465.200	-14.218	
465.300	-29.058	
465.400	-24.894	
465.500	1.540	
465.600	-0.758	
465.700	-18.402	
465.800	-3.029	
465.900	-0.264	
466.000	-8.437	
466.100	-18.567	
466.200	-1.664	
466.300	-22.632	
466.400	-9.403	
466.500	-7.830	
466.600	-15.817	
466.700	-23.076	
466.800	-28.524	
466.900	-9.381	
467.000	0.683	
467.100	-6.827	
467.200	-6.961	
467.300	-22.572	
467.400	-16.515	
467.500	-4.171	
467.600	-14.761	
467.700	-9.814	
467.800	-2.732	
467.900	-16.343	
468.000	-44.165	
468.100	-7.162	
468.200	-10.363	
468.300	-5.843	
468.400	-9.015	
468.500	-11.728	
468.600	-6.302	
468.700	-7.434	
468.800	-8.627	
468.900	-14.713	
469.000	-19.088	
469.100	-25.179	
469.200	-14.160	
469.300	-8.978	
469.400	-29.037	
469.500	-3.891	
469.600	-10.141	
469.700	-6.200	
469.800	-3.678	
469.900	-18.342	
470.000	-15.336	
470.100	-4.640	
470.200	-2.982	
470.300	-32.134	
470.400	-1.358	
470.500	0.399	
470.600	-21.299	
470.700	-4.461	
470.800	-23.974	
470.900	-13.787	
471.000	-36.584	
471.100	-8.019	
471.200	-22.390	
471.300	-14.511	
471.400	-13.527	
471.500	-6.638	
471.600	-16.923	
471.700	-13.685	
471.800	0.284	
471.900	-10.875	
472.000	-12.192	
472.100	-31.014	
472.200	-6.521	
472.300	-2.545	
472.400	4.025	
472.500	-12.148	
472.600	-22.857	
472.700	-11.440	
472.800	-12.348	
472.900	-9.961	
473.000	-7.383	
473.100	-3.954	
473.200	-16.359	
473.300	-4.087	
473.400	-20.332	
473.500	-11.232	
473.600	-13.123	
473.700	-19.394	
473.800	-29.814	
473.900	-0.687	
474.000	-2.485	
474.100	-9.173	
474.200	2.497	
474.300	-10.292	
474.400	-18.663	
474.500	-25.173	
474.600	-7.071	
474.700	5.140	
474.800	-9.067	
474.900	-25.157	
475.000	-5.660	
475.100	-18.179	
475.200	-30.817	
475.300	-24.560	
475.400	-2.582	
475.500	-19.942	
475.600	-25.908	
475.700	-16.442	
475.800	0.000	
475.900	-5.927	
476.000	-0.123	
476.100	-15.843	
476.200	-15.548	
476.300	-1.052	
476.400	-14.996	
476.500	0.163	
476.600	-13.042	
476.700	-2.748	
476.800	-26.916	
476.900	-17.692	
477.000	6.155	
477.100	-44.233	
477.200	-20.760	
477.300	-17.959	
477.400	16.115	
477.500	-14.391	
477.600	-14.012	
477.700	-5.852	
477.800	-12.342	
477.900	-21.529	
478.000	-0.672	
478.100	-23.280	
478.200	-3.025	
478.300	7.229	
478.400	-20.465	
478.500	-36.577	
478.600	-13.958	
478.700	-12.147	
478.800	-13.914	
478.900	-14.754	
479.000	-5.049	
479.100	-15.126	
479.200	-17.499	
479.300	-9.019	
479.400	-5.396	
479.500	-16.272	
479.600	5.830	
479.700	-5.692	
479.800	-20.969	
479.900	-21.169	
480.000	-7.918	
480.100	-28.658	
480.200	-13.260	
480.300	-0.432	
480.400	-0.429	
480.500	-3.117	
480.600	-7.894	
480.700	-10.508	
480.800	5.447	
480.900	-2.886	
481.000	-18.500	
481.100	7.619	
481.200	6.927	
481.300	-12.539	
481.400	2.933	
481.500	-3.174	
481.600	6.827	
481.700	26.014	
481.800	-1.652	
481.900	7.704	
482.000	4.848	
482.100	16.126	
482.200	9.296	
482.300	12.586	
482.400	15.629	
482.500	1.504	
482.600	-14.647	
482.700	5.310	
482.800	16.559	
482.900	11.612	
483.000	15.412	
483.100	14.643	
483.200	11.932	
483.300	-1.259	
483.400	17.420	
483.500	0.471	
483.600	4.759	
483.700	28.599	
483.800	12.821	
483.900	14.124	
484.000	20.302	
484.100	19.801	
484.200	9.080	
484.300	11.072	
484.400	15.021	
484.500	20.889	
484.600	14.274	
484.700	15.001	
484.800	9.554	
484.900	3.957	
485.000	17.048	
485.100	40.595	
485.200	21.782	
485.300	32.714	
485.400	14.386	
485.500	10.689	
485.600	-0.192	
485.700	20.797	
485.800	26.983	
485.900	15.038	
486.000	16.628	
486.100	8.713	
486.200	9.421	
486.300	19.693	
486.400	30.553	
486.500	22.115	
486.600	6.991	
486.700	14.880	
486.800	19.269	
486.900	8.794	
487.000	17.638	
487.100	16.808	
487.200	6.077	
487.300	13.816	
487.400	14.251	
487.500	47.990	
487.600	39.290	
487.700	26.836	
487.800	19.849	
487.900	12.369	
488.000	24.635	
488.100	16.223	
488.200	20.704	
488.300	27.864	
488.400	9.457	
488.500	33.840	
488.600	24.162	
488.700	46.017	
488.800	37.567	
488.900	28.573	
489.000	29.855	
489.100	26.647	
489.200	18.069	
489.300	37.431	
489.400	34.294	
489.500	18.698	
489.600	-0.198	
489.700	13.390	
489.800	44.217	
489.900	25.422	
490.000	35.477	
490.100	27.032	
490.200	18.155	
490.300	31.115	
490.400	29.507	
490.500	21.087	
490.600	11.353	
490.700	36.737	
490.800	20.626	
490.900	14.395	
491.000	25.844	
491.100	40.751	
491.200	24.954	
491.300	17.795	
491.400	23.366	
491.500	26.685	
491.600	22.904	
491.700	34.593	
491.800	20.813	
491.900	32.566	
492.000	33.723	
492.100	8.642	
492.200	38.589	
492.300	41.932	
492.400	38.274	
492.500	19.465	
492.600	26.734	
492.700	19.412	
492.800	43.815	
492.900	28.770	
493.000	36.281	
493.100	22.098	
493.200	19.431	
493.300	34.831	
493.400	29.264	
493.500	25.970	
493.600	19.957	
493.700	31.995	
493.800	28.067	
493.900	20.773	
494.000	39.413	
494.100	38.427	
494.200	34.467	
494.300	19.861	
494.400	34.165	
494.500	43.004	
494.600	30.848	
494.700	24.883	
494.800	10.949	
494.900	35.754	
495.000	38.147	
495.100	42.953	
495.200	36.159	
495.300	25.504	
495.400	16.205	
495.500	41.444	
495.600	40.460	
495.700	29.610	
495.800	23.628	
495.900	17.631	
496.000	15.726	
496.100	18.789	
496.200	29.504	
496.300	43.617	
496.400	27.739	
496.500	26.075	
496.600	22.739	
496.700	21.555	
496.800	27.106	
496.900	22.296	
497.000	49.002	
497.100	28.900	
497.200	21.478	
497.300	31.077	
497.400	32.035	
497.500	43.985	
497.600	20.308	
497.700	21.976	
497.800	36.247	
497.900	15.430	
498.000	43.777	
498.100	41.435	
498.200	27.789	
498.300	24.195	
498.400	43.522	
498.500	28.001	
498.600	38.699	
498.700	43.123	
498.800	43.863	
498.900	28.517	
499.000	15.478	
499.100	36.546	
499.200	46.969	
499.300	26.636	
499.400	36.214	
499.500	19.931	
499.600	25.255	
499.700	43.907	
499.800	42.668	
499.900	44.002	
500.000	35.442	
500.100	30.318	
500.200	28.884	
500.300	29.337	
500.400	24.747	
500.500	36.550	
500.600	13.365	
500.700	44.622	
500.800	22.906	
500.900	22.225	
501.000	38.573	
501.100	31.354	
501.200	22.597	
501.300	20.192	
501.400	30.915	
501.500	48.066	
501.600	25.639	
501.700	33.101	
501.800	26.627	
501.900	30.472	
502.000	49.830	
502.100	29.229	
502.200	44.560	
502.300	26.180	
502.400	37.421	
502.500	35.350	
502.600	23.583	
502.700	30.267	
502.800	25.239	
502.900	24.705	
503.000	29.609	
503.100	30.324	
503.200	24.238	
503.300	45.800	
503.400	30.102	
503.500	24.397	
503.600	21.330	
503.700	49.226	
503.800	39.187	
503.900	29.425	
504.000	17.676	
504.100	19.148	
504.200	20.434	
504.300	59.728	
504.400	44.894	
504.500	27.197	
504.600	39.337	
504.700	37.111	
504.800	26.010	
504.900	31.735	
505.000	48.508	
505.100	44.970	
505.200	20.809	
505.300	29.230	
505.400	32.575	
505.500	36.830	
505.600	43.540	
505.700	51.325	
505.800	31.117	
505.900	15.401	
506.000	22.196	
506.100	36.129	
506.200	54.186	
506.300	29.532	
506.400	30.637	
506.500	24.897	
506.600	14.659	
506.700	26.086	
506.800	35.681	
506.900	27.763	
507.000	8.137	
507.100	11.834	
507.200	22.889	
507.300	29.163	
507.400	53.286	
507.500	39.922	
507.600	26.264	
507.700	21.125	
507.800	35.794	
507.900	27.369	
508.000	45.706	
508.100	41.196	
508.200	27.311	
508.300	26.214	
508.400	30.439	
508.500	23.679	
508.600	25.578	
508.700	23.045	
508.800	44.571	
508.900	19.056	
509.000	33.190	
509.100	49.868	
509.200	1.523	
509.300	27.164	
509.400	32.764	
509.500	23.937	
509.600	36.464	
509.700	35.324	
509.800	32.057	
509.900	59.919	
510.000	27.744	
510.100	31.946	
510.200	11.199	
510.300	36.385	
510.400	46.359	
510.500	32.614	
510.600	5.854	
510.700	25.551	
510.800	48.020	
510.900	35.162	
511.000	34.700	
511.100	32.679	
511.200	11.853	
511.300	40.017	
511.400	22.556	
511.500	58.257	
511.600	46.920	
511.700	16.669	
511.800	15.999	
511.900	49.804	
512.000	43.064	
512.100	24.617	
512.200	43.486	
512.300	44.769	
512.400	28.338	
512.500	45.590	
512.600	14.474	
512.700	37.803	
512.800	39.129	
512.900	18.914	
513.000	7.245	
513.100	37.315	
513.200	31.575	
513.300	15.540	
513.400	37.934	
513.500	34.723	
513.600	31.419	
513.700	38.083	
513.800	33.736	
513.900	17.403	
514.000	31.899	
514.100	28.767	
514.200	41.751	
514.300	39.074	
514.400	35.940	
514.500	17.188	
514.600	4.580	
514.700	37.338	
514.800	24.226	
514.900	21.653	
515.000	41.086	
515.100	36.684	
515.200	19.495	
515.300	19.651	
515.400	22.732	
515.500	40.424	
515.600	40.546	
515.700	19.173	
515.800	19.003	
515.900	29.996	
516.000	30.011	
516.100	41.505	
516.200	35.046	
516.300	31.903	
516.400	33.832	
516.500	26.684	
516.600	16.389	
516.700	44.030	
516.800	29.326	
516.900	39.043	
517.000	42.517	
517.100	29.750	
517.200	27.644	
517.300	15.454	
517.400	53.493	
517.500	31.692	
517.600	18.036	
517.700	34.667	
517.800	26.752	
517.900	25.278	
518.000	23.297	
518.100	34.155	
518.200	12.528	
518.300	27.757	
518.400	35.026	
518.500	47.919	
518.600	20.688	
518.700	13.259	
518.800	40.706	
518.900	2.420	
519.000	46.007	
519.100	16.603	
519.200	48.498	
519.300	24.908	
519.400	25.869	
519.500	32.143	
519.600	38.216	
519.700	50.126	
519.800	28.683	
519.900	18.319	
520.000	28.540	
520.100	31.509	
520.200	44.696	
520.300	25.563	
520.400	25.021	
520.500	10.097	
520.600	33.207	
520.700	27.685	
520.800	32.975	
520.900	24.243	
521.000	24.510	
521.100	15.628	
521.200	18.834	
521.300	35.768	
521.400	31.420	
521.500	15.414	
521.600	36.169	
521.700	37.745	
521.800	30.560	
521.900	45.303	
522.000	50.776	
522.100	16.240	
522.200	32.087	
522.300	30.672	
522.400	44.022	
522.500	31.442	
522.600	17.126	
522.700	34.808	
522.800	27.972	
522.900	19.006	
523.000	27.388	
523.100	28.115	
523.200	42.547	
523.300	34.968	
523.400	24.183	
523.500	18.475	
523.600	26.888	
523.700	41.825	
523.800	34.300	
523.900	31.679	
524.000	33.525	
524.100	16.782	
524.200	33.258	
524.300	24.289	
524.400	35.902	
524.500	39.574	
524.600	22.633	
524.700	40.947	
524.800	26.518	
524.900	38.560	
525.000	27.054	
525.100	33.309	
525.200	23.979	
525.300	29.934	
525.400	24.157	
525.500	41.414	
525.600	27.370	
525.700	35.257	
525.800	38.190	
525.900	14.752	
526.000	29.877	
526.100	32.121	
526.200	30.217	
526.300	13.197	
526.400	32.523	
526.500	28.291	
526.600	37.892	
526.700	47.260	
526.800	15.816	
526.900	12.473	
527.000	24.096	
527.100	25.614	
527.200	38.506	
527.300	34.285	
527.400	30.202	
527.500	25.052	
527.600	40.905	
527.700	31.559	
527.800	31.123	
527.900	26.453	
528.000	14.449	
528.100	35.903	
528.200	36.267	
528.300	34.016	
528.400	31.021	
528.500	28.005	
528.600	30.764	
528.700	13.689	
528.800	24.353	
528.900	44.104	
529.000	40.604	
529.100	20.616	
529.200	42.060	
529.300	18.778	
529.400	9.753	
529.500	23.863	
529.600	37.015	
529.700	31.957	
529.800	16.265	
529.900	24.951	
530.000	19.381	
530.100	22.824	
530.200	37.560	
530.300	41.968	
530.400	24.271	
530.500	15.081	
530.600	41.205	
530.700	35.393	
530.800	38.265	
530.900	24.800	
531.000	23.288	
531.100	22.140	
531.200	33.667	
531.300	24.485	
531.400	26.492	
531.500	34.933	
531.600	24.414	
531.700	28.442	
531.800	15.775	
531.900	33.271	
532.000	23.528	
532.100	19.797	
532.200	21.681	
532.300	38.754	
532.400	33.379	
532.500	16.018	
532.600	29.963	
532.700	32.765	
532.800	23.256	
532.900	23.613	
533.000	30.791	
533.100	13.985	
533.200	31.895	
533.300	6.961	
533.400	13.555	
533.500	32.033	
533.600	44.812	
533.700	21.443	
533.800	39.982	
533.900	5.218	
534.000	30.886	
534.100	33.155	
534.200	43.593	
534.300	18.627	
534.400	45.369	
534.500	29.986	
534.600	20.630	
534.700	8.665	
534.800	31.904	
534.900	27.463	
535.000	24.872	
535.100	16.871	
535.200	22.714	
535.300	22.159	
535.400	30.692	
535.500	52.149	
535.600	19.877	
535.700	22.419	
535.800	25.952	
535.900	26.556	
536.000	34.151	
536.100	32.704	
536.200	20.206	
536.300	26.551	
536.400	16.123	
536.500	28.253	
536.600	46.375	
536.700	15.787	
536.800	39.167	
536.900	1.075	
537.000	17.502	
537.100	36.404	
537.200	25.686	
537.300	44.699	
537.400	26.132	
537.500	22.307	
537.600	7.238	
537.700	27.713	
537.800	9.262	
537.900	24.776	
538.000	33.409	
538.100	24.218	
538.200	25.370	
538.300	31.098	
538.400	13.831	
538.500	26.708	
538.600	26.075	
538.700	31.029	
538.800	19.144	
538.900	14.306	
539.000	-1.947	
539.100	42.080	
539.200	19.311	
539.300	30.211	
539.400	14.030	
539.500	35.836	
539.600	22.276	
539.700	25.032	
539.800	21.361	
539.900	21.073	
540.000	29.194	
540.100	38.362	
540.200	23.563	
540.300	25.895	
540.400	15.115	
540.500	3.445	
540.600	14.814	
540.700	12.867	
540.800	36.058	
540.900	26.630	
541.000	18.040	
541.100	20.734	
541.200	21.029	
541.300	6.587	
541.400	21.225	
541.500	14.139	
541.600	-8.593	
541.700	7.252	
541.800	11.282	
541.900	9.689	
542.000	27.018	
542.100	19.115	
542.200	4.653	
542.300	-0.319	
542.400	15.203	
542.500	24.527	
542.600	4.912	
542.700	-3.254	
542.800	17.958	
542.900	-4.136	
543.000	-0.709	
543.100	30.518	
543.200	-0.271	
543.300	5.759	
543.400	1.939	
543.500	0.025	
543.600	30.791	
543.700	0.289	
543.800	-10.657	
543.900	-7.197	
544.000	-1.994	
544.100	14.418	
544.200	27.899	
544.300	-5.317	
544.400	1.613	
544.500	-3.360	
544.600	-7.281	
544.700	16.721	
544.800	-5.340	
544.900	14.609	
545.000	7.329	
545.100	-5.454	
545.200	2.872	
545.300	3.015	
545.400	10.226	
545.500	4.634	
545.600	-7.090	
545.700	-14.897	
545.800	1.892	
545.900	-0.463	
546.000	21.408	
546.100	-29.201	
546.200	0.048	
546.300	17.717	
546.400	7.968	
546.500	-12.280	
546.600	4.148	
546.700	-4.872	
546.800	-2.311	
546.900	-7.733	
547.000	-5.648	
547.100	-18.187	
547.200	16.492	
547.300	5.622	
547.400	-18.312	
547.500	5.197	
547.600	6.279	
547.700	13.753	
547.800	6.757	
547.900	-7.590	
548.000	-5.732	
548.100	-2.314	
548.200	9.962	
548.300	5.473	
548.400	-2.136	
548.500	5.725	
548.600	-13.339	
548.700	-9.941	
548.800	-3.377	
548.900	-7.181	
549.000	-14.281	
549.100	4.181	
549.200	-29.102	
549.300	-21.169	
549.400	4.293	
549.500	4.350	
549.600	-18.901	
549.700	-2.500	
549.800	-12.744	
549.900	-9.185	
550.000	3.672	
550.100	13.644	
550.200	4.387	
550.300	-11.388	
550.400	-0.178	
550.500	-0.150	
550.600	11.122	
550.700	-0.680	
550.800	-18.614	
550.900	-15.511	
551.000	-21.239	
551.100	-5.458	
551.200	-27.556	
551.300	-24.990	
551.400	-9.802	
551.500	-19.489	
551.600	-28.666	
551.700	-17.109	
551.800	-0.173	
551.900	-9.112	
552.000	-29.060	
552.100	1.516	
552.200	-14.358	
552.300	-25.545	
552.400	-4.164	
552.500	1.105	
552.600	-16.816	
552.700	-7.768	
552.800	-23.087	
552.900	-1.849	
553.000	-17.029	
553.100	-0.611	
553.200	-22.047	
553.300	-7.577	
553.400	-16.193	
553.500	-15.747	
553.600	-10.952	
553.700	-10.012	
553.800	-18.256	
553.900	-8.095	
554.000	-22.550	
554.100	-18.808	
554.200	-9.154	
554.300	-9.289	
554.400	5.005	
554.500	-24.822	
554.600	-1.982	
554.700	-32.831	
554.800	-12.301	
554.900	-9.068	
555.000	-10.738	
555.100	-26.632	
555.200	-27.028	
555.300	-8.319	
555.400	-9.321	
555.500	-41.789	
555.600	-9.132	
555.700	-31.282	
555.800	-24.077	
555.900	-11.152	
556.000	-9.430	
556.100	-17.744	
556.200	-17.608	
556.300	-30.073	
556.400	-22.693	
556.500	18.391	
556.600	-17.916	
556.700	-28.289	
556.800	-28.608	
556.900	-5.143	
557.000	-5.500	
557.100	0.649	
557.200	-11.227	
557.300	-26.874	
557.400	-36.101	
557.500	-30.111	
557.600	-22.568	
557.700	17.596	
557.800	-29.832	
557.900	-15.329	
558.000	-25.322	
558.100	-11.975	
558.200	-3.978	
558.300	-15.571	
558.400	-21.146	
558.500	-16.412	
558.600	-24.260	
558.700	-27.306	
558.800	-10.048	
558.900	-27.815	
559.000	-37.817	
559.100	-13.087	
559.200	-22.224	
559.300	-8.356	
559.400	-6.637	
559.500	-3.462	
559.600	-19.695	
559.700	-17.110	
559.800	-19.691	
559.900	-18.444	
560.000	-6.854	
560.100	-24.675	
560.200	-17.890	
560.300	-22.817	
560.400	-19.378	
560.500	-5.745	
560.600	-14.472	
560.700	-2.847	
560.800	-39.771	
560.900	-20.723	
561.000	-10.162	
561.100	19.699	
561.200	-9.262	
561.300	-19.807	
561.400	-14.484	
561.500	-24.370	
561.600	-25.908	
561.700	-29.809	
561.800	-25.035	
561.900	-26.380	
562.000	-3.317	
562.100	-18.182	
562.200	-24.746	
562.300	-1.442	
562.400	-25.539	
562.500	-33.451	
562.600	-18.809	
562.700	-19.502	
562.800	-4.631	
562.900	-11.187	
563.000	-17.028	
563.100	-29.430	
563.200	-30.908	
563.300	-6.153	
563.400	-17.547	
563.500	-16.154	
563.600	-12.687	
563.700	-29.976	
563.800	-9.968	
563.900	-7.679	
564.000	6.661	
564.100	-23.360	
564.200	-28.613	
564.300	-18.626	
564.400	-25.015	
564.500	-28.204	
564.600	-12.036	
564.700	-17.278	
564.800	-17.761	
564.900	-16.425	
565.000	-37.907	
565.100	-5.096	
565.200	-12.166	
565.300	4.426	
565.400	-15.147	
565.500	-41.263	
565.600	-6.456	
565.700	-19.677	
565.800	-9.946	
565.900	-28.562	
566.000	-25.640	
566.100	-25.245	
566.200	-4.238	
566.300	-8.371	
566.400	-11.856	
566.500	-18.928	
566.600	-21.653	
566.700	-16.601	
566.800	-26.468	
566.900	-23.569	
567.000	-7.253	
567.100	-14.668	
567.200	-27.207	
567.300	-25.924	
567.400	-25.293	
567.500	-17.814	
567.600	-8.481	
567.700	-18.872	
567.800	-33.081	
567.900	-40.771	
568.000	-18.626	
568.100	-24.246	
568.200	-10.369	
568.300	-27.142	
568.400	-21.036	
568.500	-18.432	
568.600	-12.409	
568.700	-18.597	
568.800	-24.948	
568.900	-12.085	
569.000	-33.097	
569.100	-12.246	
569.200	-21.516	
569.300	-12.482	
569.400	-16.698	
569.500	-26.852	
569.600	-28.904	
569.700	-9.726	
569.800	3.263	
569.900	-6.993	
570.000	-21.754	
570.100	-15.650	
570.200	-19.269	
570.300	-28.630	
570.400	-34.695	
570.500	-9.490	
570.600	-21.722	
570.700	-15.912	
570.800	-4.110	
570.900	-5.804	
571.000	1.552	
571.100	-15.450	
571.200	-14.995	
571.300	-31.219	
571.400	-9.595	
571.500	-25.206	
571.600	-10.647	
571.700	-14.908	
571.800	17.004	
571.900	-27.575	
572.000	-41.222	
572.100	-35.031	
572.200	-11.921	
572.300	-33.662	
572.400	-24.011	
572.500	-24.383	
572.600	-17.796	
572.700	-13.153	
572.800	-15.494	
572.900	-18.457	
573.000	-21.330	
573.100	-20.408	
573.200	-43.734	
573.300	16.305	
573.400	-19.536	
573.500	-7.233	
573.600	-17.752	
573.700	-35.722	
573.800	-27.281	
573.900	-17.762	
574.000	-4.942	
574.100	-17.815	
574.200	-24.627	
574.300	-11.940	
574.400	-32.507	
574.500	-19.548	
574.600	-21.423	
574.700	-7.160	
574.800	-13.206	
574.900	-35.938	
575.000	-16.454	
575.100	5.258	
575.200	-14.373	
575.300	-12.273	
575.400	-34.532	
575.500	-23.169	
575.600	-5.061	
575.700	-14.369	
575.800	-0.186	
575.900	-35.344	
576.000	-43.181	
576.100	-13.582	
576.200	-15.989	
576.300	-18.440	
576.400	-17.338	
576.500	-9.134	
576.600	-34.532	
576.700	0.524	
576.800	-18.835	
576.900	-3.423	
577.000	1.245	
577.100	-4.311	
577.200	-28.874	
577.300	-26.793	
577.400	-23.539	
577.500	-29.120	
577.600	-19.502	
577.700	-26.819	
577.800	0.380	
577.900	-25.394	
578.000	-5.363	
578.100	13.302	
578.200	-39.621	
578.300	-28.735	
578.400	-33.452	
578.500	-13.347	
578.600	-0.013	
578.700	-27.971	
578.800	9.597	
578.900	-25.536	
579.000	-11.045	
579.100	-15.065	
579.200	-5.556	
579.300	-6.197	
579.400	-19.907	
579.500	-22.111	
579.600	-12.974	
579.700	-7.749	
579.800	-8.489	
579.900	-5.963	
580.000	-21.766	
580.100	-16.747	
580.200	-13.660	
580.300	-20.205	
580.400	-7.959	
580.500	-32.276	
580.600	-25.827	
580.700	-28.765	
580.800	-17.150	
580.900	-13.466	
581.000	-6.714	
581.100	-19.753	
581.200	-27.735	
581.300	-24.062	
581.400	-13.610	
581.500	-7.944	
581.600	-12.427	
581.700	-24.980	
581.800	-22.583	
581.900	-12.564	
582.000	-17.216	
582.100	-12.729	
582.200	-14.426	
582.300	-26.065	
582.400	-22.698	
582.500	-18.021	
582.600	-8.567	
582.700	-12.163	
582.800	-20.873	
582.900	-14.275	
583.000	-31.486	
583.100	-25.224	
583.200	-8.440	
583.300	-34.998	
583.400	-6.673	
583.500	-18.365	
583.600	-12.175	
583.700	-29.105	
583.800	-9.974	
583.900	-32.418	
584.000	-12.424	
584.100	-18.300	
584.200	-15.126	
584.300	-21.916	
584.400	-17.085	
584.500	-24.488	
584.600	-0.734	
584.700	-35.819	
584.800	-23.900	
584.900	-16.801	
585.000	-26.749	
585.100	-1.962	
585.200	-38.777	
585.300	-22.696	
585.400	-16.522	
585.500	-17.339	
585.600	-10.555	
585.700	-12.170	
585.800	-33.084	
585.900	-2.798	
586.000	-9.307	
586.100	-26.953	
586.200	-21.205	
586.300	0.392	
586.400	1.898	
586.500	-22.562	
586.600	-26.009	
586.700	-22.238	
586.800	-13.277	
586.900	-11.241	
587.000	-18.150	
587.100	-27.298	
587.200	-37.430	
587.300	4.284	
587.400	-5.651	
587.500	-35.339	
587.600	-37.508	
587.700	-14.813	
587.800	-19.347	
587.900	-48.440	
588.000	13.075	
588.100	-15.150	
588.200	-14.622	
588.300	-22.836	
588.400	-20.135	
588.500	-18.717	
588.600	-0.420	
588.700	-24.953	
588.800	-19.244	
588.900	-25.733	
589.000	-4.699	
589.100	-3.758	
589.200	-10.544	
589.300	-3.000	
589.400	-21.913	
589.500	-33.326	
589.600	-22.699	
589.700	-7.211	
589.800	-2.261	
589.900	-20.579	
590.000	-19.272	
590.100	-23.220	
590.200	-31.628	
590.300	-17.319	
590.400	-1.126	
590.500	-39.761	
590.600	-45.339	
590.700	-8.047	
590.800	-16.311	
590.900	-10.613	
591.000	-21.314	
591.100	-30.178	
591.200	-18.728	
591.300	-2.425	
591.400	-8.558	
591.500	-6.125	
591.600	-30.606	
591.700	-17.622	
591.800	-14.387	
591.900	-28.294	
592.000	-12.616	
592.100	-15.336	
592.200	-16.567	
592.300	-20.407	
592.400	-30.801	
592.500	-0.330	
592.600	-7.959	
592.700	-8.875	
592.800	1.972	
592.900	-39.924	
593.000	-1.806	
593.100	-26.950	
593.200	-8.128	
593.300	-6.802	
593.400	-22.703	
593.500	-25.401	
593.600	-30.712	
593.700	-5.568	
593.800	-9.826	
593.900	-12.344	
594.000	-2.992	
594.100	-17.639	
594.200	-21.248	
594.300	-9.464	
594.400	0.704	
594.500	-16.147	
594.600	-22.258	
594.700	-17.846	
594.800	-15.088	
594.900	-37.876	
595.000	1.724	
595.100	-7.710	
595.200	-4.291	
595.300	-19.410	
595.400	-23.278	
595.500	-9.189	
595.600	-14.225	
595.700	-20.013	
595.800	-31.907	
595.900	-31.945	
596.000	-19.326	
596.100	8.982	
596.200	-7.771	
596.300	-26.687	
596.400	-17.555	
596.500	-21.835	
596.600	-17.988	
596.700	-21.483	
596.800	-15.714	
596.900	-14.429	
597.000	-23.911	
597.100	-22.518	
597.200	-17.629	
597.300	0.684	
597.400	-8.491	
597.500	-18.371	
597.600	-14.906	
597.700	-12.959	
597.800	-11.260	
597.900	-30.762	
598.000	-24.977	
598.100	-21.236	
598.200	-43.447	
598.300	-39.521	
598.400	-27.090	
598.500	5.338	
598.600	15.356	
598.700	-6.460	
598.800	-24.704	
598.900	-20.879	
599.000	-3.788	
599.100	-11.250	
599.200	-27.544	
599.300	-15.554	
599.400	-18.128	
599.500	-14.466	
599.600	-10.978	
599.700	-0.167	
599.800	-5.473	
599.900	-16.056	
600.000	-19.888	
600.100	-44.649	
600.200	-2.967	
600.300	-11.359	
600.400	-20.832	
600.500	8.543	
600.600	-21.772	
600.700	-6.826	
600.800	1.961	
600.900	-20.318	
601.000	-19.625	
601.100	-32.493	
601.200	-20.714	
601.300	5.032	
601.400	0.224	
601.500	-29.036	
601.600	-10.880	
601.700	-28.441	
601.800	-24.059	
601.900	-24.060	
602.000	-8.292	
602.100	-9.680	
602.200	-19.990	
602.300	-17.186	
602.400	-4.955	
602.500	-6.691	
602.600	-18.376	
602.700	-29.114	
602.800	-25.029	
602.900	-14.437	
603.000	9.228	
603.100	-17.564	
603.200	-9.786	
603.300	-9.383	
603.400	-10.763	
603.500	-24.528	
603.600	-32.705	
603.700	-25.627	
603.800	0.937	
603.900	-21.218	
604.000	-18.058	
604.100	-16.168	
604.200	-9.266	
604.300	6.320	
604.400	-24.600	
604.500	-13.343	
604.600	-14.297	
604.700	-23.507	
604.800	-4.043	
604.900	-7.313	
605.000	5.162	
605.100	-18.007	
605.200	-26.876	
605.300	-16.407	
605.400	-25.558	
605.500	-23.136	
605.600	-29.513	
605.700	-28.620	
605.800	-17.833	
605.900	-22.987	
606.000	4.714	
606.100	-1.500	
606.200	-26.715	
606.300	-11.682	
606.400	-21.211	
606.500	-18.689	
606.600	-11.167	
606.700	-16.386	
606.800	-19.664	
606.900	-6.430	
607.000	-39.068	
607.100	-9.018	
607.200	-29.647	
607.300	0.127	
607.400	-22.086	
607.500	-10.924	
607.600	-25.115	
607.700	-31.797	
607.800	15.110	
607.900	-21.366	
608.000	-4.436	
608.100	-17.484	
608.200	-14.619	
608.300	-30.252	
608.400	2.591	
608.500	-18.588	
608.600	-9.009	
608.700	1.537	
608.800	-14.477	
608.900	-12.123	
609.000	-6.079	
609.100	-32.958	
609.200	-13.050	
609.300	-7.890	
609.400	-46.706	
609.500	-21.035	
609.600	-4.921	
609.700	-14.771	
609.800	-21.507	
609.900	-16.529	
610.000	-29.645	
610.100	14.630	
610.200	-9.197	
610.300	-3.450	
610.400	-38.328	
610.500	-19.204	
610.600	-11.816	
610.700	-3.016	
610.800	-16.535	
610.900	-28.626	
611.000	-7.840	
611.100	-19.102	
611.200	-5.600	
611.300	-14.086	
611.400	-9.452	
611.500	-15.256	
611.600	-16.896	
611.700	-20.590	
611.800	-16.667	
611.900	-25.395	
612.000	-8.908	
612.100	-4.581	
612.200	-19.488	
612.300	-13.527	
612.400	-8.323	
612.500	-9.565	
612.600	-11.882	
612.700	-21.413	
612.800	-23.552	
612.900	-22.191	
613.000	-13.317	
613.100	-8.734	
613.200	-10.409	
613.300	-31.949	
613.400	-21.882	
613.500	8.276	
613.600	-19.725	
613.700	2.579	
613.800	-15.025	
613.900	-15.506	
614.000	-23.088	
614.100	-9.500	
614.200	-11.774	
614.300	-11.467	
614.400	-21.655	
614.500	-4.418	
614.600	-42.627	
614.700	-16.474	
614.800	1.214	
614.900	4.508	
615.000	-19.985	
615.100	-5.900	
615.200	-27.689	
615.300	-4.009	
615.400	-13.874	
615.500	-2.346	
615.600	-11.124	
615.700	-7.204	
615.800	-25.405	
615.900	-28.901	
616.000	-17.980	
616.100	-9.075	
616.200	3.244	
616.300	-2.778	
616.400	-16.742	
616.500	-18.612	
616.600	-22.916	
616.700	-14.053	
616.800	-3.286	
616.900	-29.835	
617.000	-0.311	
617.100	-13.237	
617.200	6.713	
617.300	-23.180	
617.400	-10.541	
617.500	-36.332	
617.600	-18.494	
617.700	-7.015	
617.800	-21.894	
617.900	-7.438	
618.000	-14.186	
618.100	-10.964	
618.200	-7.900	
618.300	3.871	
618.400	-12.359	
618.500	1.101	
618.600	-13.480	
618.700	-21.425	
618.800	-17.812	
618.900	-0.768	
619.000	3.818	
619.100	-18.074	
619.200	-10.508	
619.300	-20.052	
619.400	-3.900	
619.500	-11.031	
619.600	2.104	
619.700	-34.351	
619.800	-33.836	
619.900	-30.569	
620.000	-5.174	
620.100	-12.872	
620.200	-5.238	
620.300	-12.309	
620.400	-36.297	
620.500	-19.300	
620.600	-3.583	
620.700	1.673	
620.800	-9.606	
620.900	-4.763	
621.000	-35.319	
621.100	-10.541	
621.200	-8.448	
621.300	-8.311	
621.400	-19.994	
621.500	-15.958	
621.600	-10.579	
621.700	-15.704	
621.800	-8.740	
621.900	-2.570	
622.000	-11.770	
622.100	-17.073	
622.200	-13.534	
622.300	-11.643	
622.400	-8.420	
622.500	6.266	
622.600	-20.580	
622.700	-9.523	
622.800	-22.374	
622.900	-3.831	
623.000	-0.702	
623.100	-24.130	
623.200	-20.878	
623.300	-27.680	
623.400	-7.603	
623.500	-13.506	
623.600	-16.323	
623.700	-2.430	
623.800	-17.623	
623.900	-16.619	
624.000	-21.531	
624.100	-5.906	
624.200	10.791	
624.300	-11.227	
624.400	-28.329	
624.500	-2.319	
624.600	-28.128	
624.700	-3.326	
624.800	9.697	
624.900	10.035	
625.000	-26.957	
625.100	-22.905	
625.200	-24.382	
625.300	-11.947	
625.400	-3.947	
625.500	-16.039	
625.600	-20.988	
625.700	-18.905	
625.800	-12.408	
625.900	-7.136	
626.000	-4.072	
626.100	-10.407	
626.200	-24.315	
626.300	-2.124	
626.400	-20.548	
626.500	6.473	
626.600	-15.092	
626.700	-18.215	
626.800	-20.997	
626.900	-12.803	
627.000	-17.372	
627.100	-3.835	
627.200	-18.137	
627.300	-5.996	
627.400	-14.232	
627.500	-23.783	
627.600	-13.371	
627.700	-9.156	
627.800	4.362	
627.900	1.810	
628.000	-13.954	
628.100	-9.969	
628.200	2.903	
628.300	-18.791	
628.400	-17.455	
628.500	-9.157	
628.600	-20.393	
628.700	-6.620	
628.800	-10.918	
628.900	-5.767	
629.000	-0.087	
629.100	-14.449	
629.200	-9.242	
629.300	-13.972	
629.400	-22.532	
629.500	-4.104	
629.600	5.637	
629.700	-22.141	
629.800	-19.127	
629.900	-12.514	
630.000	-14.621	
630.100	-11.195	
630.200	-10.685	
630.300	-24.159	
630.400	-11.020	
630.500	-10.812	
630.600	5.176	
630.700	4.619	
630.800	-7.397	
630.900	-12.937	
631.000	20.033	
631.100	5.342	
631.200	-17.861	
631.300	13.603	
631.400	2.686	
631.500	-5.955	
631.600	2.180	
631.700	-6.687	
631.800	10.508	
631.900	5.795	
632.000	0.303	
632.100	8.298	
632.200	8.978	
632.300	-3.579	
632.400	14.456	
632.500	10.262	
632.600	-1.285	
632.700	-7.969	
632.800	16.986	
632.900	7.927	
633.000	29.871	
633.100	3.280	
633.200	-22.118	
633.300	0.639	
633.400	20.102	
633.500	5.841	
633.600	1.992	
633.700	29.301	
633.800	2.309	
633.900	-7.523	
634.000	37.967	
634.100	16.353	
634.200	22.829	
634.300	28.971	
634.400	12.038	
634.500	23.441	
634.600	18.877	
634.700	9.490	
634.800	17.734	
634.900	14.137	
635.000	17.787	
635.100	5.600	
635.200	18.169	
635.300	8.755	
635.400	13.743	
635.500	25.614	
635.600	19.493	
635.700	1.585	
635.800	28.927	
635.900	20.278	
636.000	18.415	
636.100	12.347	
636.200	7.774	
636.300	32.562	
636.400	15.849	
636.500	26.768	
636.600	17.725	
636.700	21.224	
636.800	11.232	
636.900	29.498	
637.000	15.477	
637.100	23.776	
637.200	30.239	
637.300	23.683	
637.400	35.576	
637.500	20.468	
637.600	2.970	
637.700	27.990	
637.800	29.637	
637.900	32.851	
638.000	-7.404	
638.100	33.698	
638.200	14.280	
638.300	37.450	
638.400	20.963	
638.500	29.801	
638.600	36.373	
638.700	26.636	
638.800	31.694	
638.900	19.682	
639.000	17.621	
639.100	17.143	
639.200	19.788	
639.300	17.325	
639.400	24.962	
639.500	34.954	
639.600	22.562	
639.700	22.611	
639.800	39.287	
639.900	30.312	
640.000	40.803	
640.100	21.890	
640.200	31.942	
640.300	12.890	
640.400	20.159	
640.500	29.022	
640.600	40.793	
640.700	18.572	
640.800	31.394	
640.900	29.295	
641.000	32.328	
641.100	40.821	
641.200	28.923	
641.300	1.894	
641.400	28.111	
641.500	15.761	
641.600	9.925	
641.700	29.569	
641.800	36.219	
641.900	40.468	
642.000	28.318	
642.100	33.518	
642.200	33.619	
642.300	37.617	
642.400	28.727	
642.500	39.658	
642.600	35.771	
642.700	27.557	
642.800	21.799	
642.900	10.254	
643.000	34.763	
643.100	44.887	
643.200	8.423	
643.300	17.550	
643.400	24.805	
643.500	45.708	
643.600	26.187	
643.700	21.296	
643.800	15.194	
643.900	29.113	
644.000	29.715	
644.100	24.314	
644.200	31.533	
644.300	18.208	
644.400	25.024	
644.500	29.591	
644.600	13.072	
644.700	35.790	
644.800	34.718	
644.900	21.885	
645.000	16.915	
645.100	37.048	
645.200	19.210	
645.300	28.813	
645.400	22.979	
645.500	36.237	
645.600	-2.473	
645.700	26.471	
645.800	22.339	
645.900	36.744	
646.000	38.940	
646.100	28.122	
646.200	12.969	
646.300	38.128	
646.400	32.321	
646.500	23.284	
646.600	25.864	
646.700	25.001	
646.800	4.708	
646.900	26.998	
647.000	38.753	
647.100	38.551	
647.200	39.662	
647.300	18.785	
647.400	21.589	
647.500	18.066	
647.600	35.878	
647.700	14.663	
647.800	34.798	
647.900	0.660	
648.000	33.208	
648.100	36.114	
648.200	32.949	
648.300	36.435	
648.400	26.621	
648.500	29.536	
648.600	28.998	
648.700	35.911	
648.800	34.836	
648.900	14.916	
649.000	30.452	
649.100	29.276	
649.200	33.613	
649.300	47.784	
649.400	45.267	
649.500	22.194	
649.600	16.477	
649.700	41.621	
649.800	33.406	
649.900	18.850	
650.000	21.894	
650.100	29.308	
650.200	1.806	
650.300	17.412	
650.400	37.736	
650.500	43.835	
650.600	29.874	
650.700	15.766	
650.800	13.208	
650.900	33.031	
651.000	36.113	
651.100	31.732	
651.200	39.685	
651.300	13.931	
651.400	16.917	
651.500	35.726	
651.600	41.717	
651.700	32.244	
651.800	27.715	
651.900	31.224	
652.000	29.474	
652.100	25.002	
652.200	27.222	
652.300	47.654	
652.400	23.994	
652.500	16.761	
652.600	35.330	
652.700	33.202	
652.800	30.449	
652.900	37.968	
653.000	38.483	
653.100	27.077	
653.200	9.477	
653.300	18.278	
653.400	25.819	
653.500	14.012	
653.600	40.860	
653.700	24.651	
653.800	40.317	
653.900	19.184	
654.000	29.678	
654.100	23.140	
654.200	33.903	
654.300	17.281	
654.400	4.599	
654.500	37.854	
654.600	28.690	
654.700	34.524	
654.800	19.578	
654.900	22.139	
655.000	23.363	
655.100	28.525	
655.200	35.875	
655.300	21.987	
655.400	14.506	
655.500	22.135	
655.600	37.445	
655.700	23.372	
655.800	21.405	
655.900	17.672	
656.000	4.792	
656.100	32.902	
656.200	38.835	
656.300	41.492	
656.400	16.080	
656.500	30.962	
656.600	13.208	
656.700	33.245	
656.800	22.202	
656.900	31.870	
657.000	20.687	
657.100	23.070	
657.200	29.831	
657.300	18.929	
657.400	36.549	
657.500	46.778	
657.600	34.357	
657.700	34.115	
657.800	31.523	
657.900	24.152	
658.000	29.178	
658.100	27.825	
658.200	37.497	
658.300	32.502	
658.400	20.960	
658.500	24.217	
658.600	30.470	
658.700	19.411	
658.800	30.998	
658.900	29.585	
659.000	19.988	
659.100	28.415	
659.200	39.504	
659.300	41.598	
659.400	48.368	
659.500	22.731	
659.600	11.103	
659.700	46.228	
659.800	33.874	
659.900	12.815	
660.000	11.946	
660.100	25.272	
660.200	22.381	
660.300	30.236	
660.400	50.301	
660.500	32.868	
660.600	9.933	
660.700	24.372	
660.800	26.003	
660.900	20.670	
661.000	42.610	
661.100	26.667	
661.200	22.263	
661.300	17.145	
661.400	33.153	
661.500	18.256	
661.600	34.793	
661.700	37.650	
661.800	28.269	
661.900	24.340	
662.000	19.582	
662.100	24.531	
662.200	19.125	
662.300	14.379	
662.400	46.620	
662.500	10.899	
662.600	41.794	
662.700	27.010	
662.800	30.713	
662.900	29.610	
663.000	23.016	
663.100	33.104	
663.200	14.365	
663.300	16.027	
663.400	46.290	
663.500	18.424	
663.600	7.663	
663.700	30.458	
663.800	31.723	
663.900	5.379	
664.000	28.323	
664.100	27.088	
664.200	12.022	
664.300	14.794	
664.400	33.123	
664.500	41.799	
664.600	15.887	
664.700	7.787	
664.800	27.619	
664.900	43.168	
665.000	7.862	
665.100	18.634	
665.200	28.776	
665.300	23.473	
665.400	18.962	
665.500	30.260	
665.600	43.723	
665.700	31.118	
665.800	33.657	
665.900	15.768	
666.000	15.390	
666.100	22.794	
666.200	36.929	
666.300	44.533	
666.400	21.754	
666.500	11.033	
666.600	32.708	
666.700	24.453	
666.800	21.697	
666.900	18.631	
667.000	30.307	
667.100	36.234	
667.200	31.114	
667.300	24.404	
667.400	16.061	
667.500	28.602	
667.600	30.643	
667.700	23.795	
667.800	24.546	
667.900	36.372	
668.000	30.937	
668.100	40.706	
668.200	11.190	
668.300	23.248	
668.400	15.721	
668.500	30.360	
668.600	12.190	
668.700	10.169	
668.800	45.057	
668.900	27.803	
669.000	50.077	
669.100	41.450	
669.200	31.391	
669.300	24.361	
669.400	31.313	
669.500	-0.112	
669.600	31.592	
669.700	29.632	
669.800	40.233	
669.900	25.156	
670.000	14.909	
670.100	31.727	
670.200	13.459	
670.300	39.008	
670.400	26.466	
670.500	20.057	
670.600	24.558	
670.700	31.979	
670.800	30.972	
670.900	14.509	
671.000	31.344	
671.100	34.974	
671.200	17.671	
671.300	14.993	
671.400	18.558	
671.500	43.133	
671.600	33.187	
671.700	12.674	
671.800	16.499	
671.900	21.495	
672.000	24.255	
672.100	33.252	
672.200	33.973	
672.300	28.300	
672.400	2.262	
672.500	56.117	
672.600	34.565	
672.700	46.903	
672.800	23.434	
672.900	11.510	
673.000	29.539	
673.100	33.660	
673.200	27.609	
673.300	28.702	
673.400	15.354	
673.500	22.387	
673.600	22.265	
673.700	29.791	
673.800	40.570	
673.900	10.593	
674.000	28.994	
674.100	6.638	
674.200	20.317	
674.300	30.548	
674.400	49.452	
674.500	16.269	
674.600	22.341	
674.700	22.038	
674.800	19.674	
674.900	27.092	
675.000	18.907	
675.100	32.284	
675.200	24.184	
675.300	25.643	
675.400	26.271	
675.500	28.872	
675.600	34.647	
675.700	35.975	
675.800	13.296	
675.900	25.549	
676.000	19.327	
676.100	29.664	
676.200	27.616	
676.300	16.606	
676.400	25.313	
676.500	29.012	
676.600	18.016	
676.700	29.729	
676.800	32.767	
676.900	20.954	
677.000	25.760	
677.100	19.839	
677.200	14.581	
677.300	45.606	
677.400	44.787	
677.500	37.226	
677.600	26.202	
677.700	8.660	
677.800	24.380	
677.900	37.947	
678.000	32.567	
678.100	14.821	
678.200	17.049	
678.300	11.659	
678.400	37.548	
678.500	33.299	
678.600	27.932	
678.700	16.253	
678.800	18.454	
678.900	29.271	
679.000	33.707	
679.100	28.867	
679.200	30.820	
679.300	34.246	
679.400	22.408	
679.500	25.696	
679.600	29.836	
679.700	31.558	
679.800	2.084	
679.900	17.421	
680.000	29.732	
680.100	32.203	
680.200	27.852	
680.300	14.306	
680.400	32.624	
680.500	19.177	
680.600	20.100	
680.700	20.349	
680.800	32.682	
680.900	29.837	
681.000	42.902	
681.100	17.164	
681.200	16.137	
681.300	22.600	
681.400	30.102	
681.500	43.381	
681.600	19.656	
681.700	23.203	
681.800	14.006	
681.900	4.613	
682.000	27.290	
682.100	40.675	
682.200	27.511	
682.300	11.411	
682.400	15.558	
682.500	28.870	
682.600	27.729	
682.700	24.596	
682.800	24.049	
682.900	27.324	
683.000	22.569	
683.100	27.756	
683.200	29.714	
683.300	29.611	
683.400	25.387	
683.500	12.827	
683.600	25.142	
683.700	23.810	
683.800	36.783	
683.900	25.301	
684.000	32.592	
684.100	9.657	
684.200	19.199	
684.300	24.540	
684.400	13.105	
684.500	40.919	
684.600	13.959	
684.700	22.748	
684.800	12.163	
684.900	9.425	
685.000	45.205	
685.100	37.497	
685.200	30.449	
685.300	22.227	
685.400	26.375	
685.500	31.248	
685.600	37.520	
685.700	29.723	
685.800	37.475	
685.900	31.586	
686.000	4.605	
686.100	52.793	
686.200	24.625	
686.300	20.747	
686.400	26.218	
686.500	27.418	
686.600	23.540	
686.700	25.847	
686.800	17.494	
686.900	19.323	
687.000	17.904	
687.100	28.412	
687.200	36.875	
687.300	43.108	
687.400	21.913	
687.500	24.721	
687.600	11.027	
687.700	13.572	
687.800	34.294	
687.900	36.144	
688.000	31.166	
688.100	28.420	
688.200	16.453	
688.300	26.165	
688.400	36.965	
688.500	14.144	
688.600	35.101	
688.700	27.745	
688.800	32.417	
688.900	25.951	
689.000	22.857	
689.100	22.662	
689.200	30.807	
689.300	38.231	
689.400	21.125	
689.500	14.126	
689.600	30.944	
689.700	9.384	
689.800	59.928	
689.900	27.016	
690.000	14.919	
690.100	12.956	
690.200	39.152	
690.300	48.491	
690.400	9.375	
690.500	13.485	
690.600	20.841	
690.700	35.931	
690.800	25.968	
690.900	31.668	
691.000	18.581	
691.100	28.080	
691.200	-4.742	
691.300	11.084	
691.400	25.075	
691.500	12.362	
691.600	-7.048	
691.700	6.414	
691.800	21.828	
691.900	4.346	
692.000	18.915	
692.100	11.922	
692.200	3.572	
692.300	-0.118	
692.400	5.111	
692.500	32.276	
692.600	7.876	
692.700	-4.403	
692.800	12.655	
692.900	13.186	
693.000	13.488	
693.100	4.590	
693.200	13.629	
693.300	-3.360	
693.400	7.058	
693.500	5.462	
693.600	7.658	
693.700	7.084	
693.800	-3.003	
693.900	12.411	
694.000	8.682	
694.100	-1.591	
694.200	12.442	
694.300	3.745	
694.400	7.174	
694.500	-5.743	
694.600	7.523	
694.700	15.587	
694.800	-14.881	
694.900	40.989	
695.000	8.644	
695.100	4.497	
695.200	-11.408	
695.300	8.051	
695.400	18.890	
695.500	0.516	
695.600	-11.980	
695.700	9.168	
695.800	18.864	
695.900	21.057	
696.000	-11.924	
696.100	12.526	
696.200	8.455	
696.300	4.082	
696.400	-25.490	
696.500	-0.955	
696.600	-4.156	
696.700	11.334	
696.800	14.462	
696.900	-11.777	
697.000	-7.766	
697.100	4.803	
697.200	-13.922	
697.300	1.567	
697.400	-6.320	
697.500	-0.732	
697.600	-4.252	
697.700	7.445	
697.800	-5.070	
697.900	-15.221	
698.000	4.784	
698.100	-16.023	
698.200	-0.985	
698.300	-6.715	
698.400	17.160	
698.500	1.566	
698.600	-1.107	
698.700	-3.036	
698.800	4.077	
698.900	-13.982	
699.000	-3.131	
699.100	14.092	
699.200	2.965	
699.300	-5.282	
699.400	-14.279	
699.500	8.342	
699.600	9.072	
699.700	-4.956	
699.800	-6.019	
699.900	-27.631	
700.000	-12.514	
700.100	2.088	
700.200	23.133	
700.300	-15.526	
700.400	-4.344	
700.500	-4.937	
700.600	-24.850	
700.700	9.187	
700.800	-6.388	
700.900	-8.313	
701.000	-11.465	
701.100	-21.492	
701.200	-7.078	
701.300	-0.437	
701.400	3.914	
701.500	-1.817	
701.600	-34.961	
701.700	-7.476	
701.800	7.137	
701.900	10.061	
702.000	-23.556	
702.100	2.260	
702.200	-4.537	
702.300	0.602	
702.400	-2.598	
702.500	-20.296	
702.600	-10.576	
702.700	-16.746	
702.800	-6.246	
702.900	-8.843	
703.000	2.636	
703.100	-2.868	
703.200	-0.127	
703.300	-12.055	
703.400	-20.288	
703.500	-8.100	
703.600	-11.517	
703.700	-27.573	
703.800	-5.560	
703.900	6.884	
704.000	-12.080	
704.100	-21.843	
704.200	-5.074	
704.300	-15.935	
704.400	2.983	
704.500	-28.586	
704.600	-17.660	
704.700	-13.379	
704.800	15.992	
704.900	-0.902	
705.000	-10.536	
705.100	-25.249	
705.200	-23.396	
705.300	-18.356	
705.400	-9.355	
705.500	-17.718	
705.600	-20.388	
705.700	-13.858	
705.800	-30.761	
705.900	-30.480	
706.000	-3.465	
706.100	-12.145	
706.200	-4.056	
706.300	-12.449	
706.400	-3.624	
706.500	-17.944	
706.600	-6.424	
706.700	-38.539	
706.800	-13.916	
706.900	-15.027	
707.000	-15.017	
707.100	-12.681	
707.200	-25.225	
707.300	-3.557	
707.400	-22.957	
707.500	-25.373	
707.600	-8.499	
707.700	-18.337	
707.800	-0.980	
707.900	-19.311	
708.000	-17.344	
708.100	-10.598	
708.200	-9.986	
708.300	-26.366	
708.400	-17.788	
708.500	-3.777	
708.600	-16.434	
708.700	-25.100	
708.800	-15.549	
708.900	-3.497	
709.000	-16.658	
709.100	-36.215	
709.200	-9.367	
709.300	-30.218	
709.400	-6.801	
709.500	-6.080	
709.600	-17.843	
709.700	-11.900	
709.800	-14.565	
709.900	-18.842	
710.000	-13.139	
710.100	-15.003	
710.200	0.258	
710.300	-5.189	
710.400	-40.997	
710.500	-10.825	
710.600	-9.871	
710.700	-24.486	
710.800	-20.817	
710.900	-11.246	
711.000	-21.679	
711.100	-15.571	
711.200	-22.045	
711.300	-20.913	
711.400	-11.897	
711.500	-21.916	
711.600	-19.332	
711.700	-9.644	
711.800	-8.415	
711.900	-18.102	
712.000	-18.971	
712.100	-22.818	
712.200	-18.368	
712.300	-13.715	
712.400	-7.100	
712.500	-3.325	
712.600	-19.338	
712.700	-28.849	
712.800	-23.308	
712.900	-21.457	
713.000	-16.681	
713.100	-3.599	
713.200	-8.900	
713.300	-25.017	
713.400	-17.867	
713.500	-12.001	
713.600	-17.814	
713.700	-12.806	
713.800	-17.437	
713.900	-33.799	
714.000	-23.777	
714.100	-19.043	
714.200	-6.823	
714.300	-3.196	
714.400	-16.585	
714.500	-21.784	
714.600	-19.014	
714.700	-11.238	
714.800	-16.100	
714.900	-12.486	
715.000	-23.389	
715.100	-9.687	
715.200	-19.126	
715.300	-25.334	
715.400	-12.490	
715.500	-23.371	
715.600	-17.473	
715.700	-15.387	
715.800	-41.575	
715.900	-23.224	
716.000	-21.235	
716.100	-23.670	
716.200	-13.180	
716.300	-18.945	
716.400	1.587	
716.500	-23.512	
716.600	-21.519	
716.700	-28.793	
716.800	-27.268	
716.900	-21.906	
717.000	-20.095	
717.100	-12.693	
717.200	-29.543	
717.300	-17.091	
717.400	-24.803	
717.500	-22.879	
717.600	-2.974	
717.700	-11.431	
717.800	-22.178	
717.900	-20.287	
718.000	-12.323	
718.100	-27.896	
718.200	-13.700	
718.300	-23.765	
718.400	-19.600	
718.500	-12.528	
718.600	-15.522	
718.700	-18.300	
718.800	-9.962	
718.900	-21.490	
719.000	-20.096	
719.100	-39.123	
719.200	-14.687	
719.300	-10.507	
719.400	-15.669	
719.500	-20.293	
719.600	7.880	
719.700	-29.498	
719.800	-8.444	
719.900	-8.155	
720.000	-16.226	
720.100	-26.269	
720.200	-14.450	
720.300	-38.744	
720.400	-11.711	
720.500	-18.815	
720.600	-26.880	
720.700	-8.662	
720.800	-9.827	
720.900	-32.086	
721.000	-23.061	
721.100	-19.265	
721.200	-4.698	
721.300	-1.471	
721.400	-28.174	
721.500	-12.602	
721.600	-28.552	
721.700	-18.602	
721.800	10.541	
721.900	-17.152	
722.000	-8.124	
722.100	-19.680	
722.200	-36.027	
722.300	-14.388	
722.400	-6.643	
722.500	-3.341	
722.600	-30.653	
722.700	-19.379	
722.800	-23.635	
722.900	-23.890	
723.000	-20.356	
723.100	-27.172	
723.200	-44.334	
723.300	-29.641	
723.400	-9.091	
723.500	-22.902	
723.600	-8.159	
723.700	-19.575	
723.800	-40.957	
723.900	-25.077	
724.000	-22.996	
724.100	9.025	
724.200	-17.177	
724.300	-19.719	
724.400	-30.446	
724.500	-18.649	
724.600	-12.176	
724.700	-0.173	
724.800	-26.074	
724.900	-35.129	
725.000	-14.652	
725.100	-12.493	
725.200	-27.548	
725.300	-4.770	
725.400	-24.826	
725.500	-1.538	
725.600	-11.267	
725.700	-4.426	
725.800	-31.774	
725.900	-13.874	
726.000	-14.618	
726.100	-18.454	
726.200	-20.080	
726.300	-18.410	
726.400	-14.061	
726.500	-31.754	
726.600	-11.438	
726.700	-23.822	
726.800	-37.305	
726.900	-17.854	
727.000	-23.316	
727.100	-14.833	
727.200	-15.939	
727.300	-20.435	
727.400	-5.269	
727.500	-17.644	
727.600	-11.554	
727.700	-23.764	
727.800	-27.058	
727.900	-11.542	
728.000	-15.384	
728.100	-13.208	
728.200	-3.060	
728.300	-21.865	
728.400	-20.717	
728.500	-26.200	
728.600	-28.149	
728.700	-13.837	
728.800	-3.980	
728.900	-19.150	
729.000	-28.780	
729.100	-18.543	
729.200	-13.834	
729.300	-25.148	
729.400	-15.822	
729.500	-18.074	
729.600	-30.023	
729.700	-18.154	
729.800	-18.491	
729.900	-12.007	
730.000	11.791	
730.100	-12.367	
730.200	-27.235	
730.300	-15.120	
730.400	-36.051	
730.500	-13.332	
730.600	-2.948	
730.700	-14.499	
730.800	-25.426	
730.900	-28.999	
731.000	-15.357	
731.100	-26.888	
731.200	-21.703	
731.300	8.870	
731.400	-31.131	
731.500	-23.344	
731.600	-3.737	
731.700	-32.127	
731.800	-4.341	
731.900	-2.471	
732.000	-18.466	
732.100	-26.283	
732.200	-26.387	
732.300	-7.856	
732.400	-23.851	
732.500	-24.413	
732.600	-24.922	
732.700	-25.596	
732.800	-3.270	
732.900	-26.727	
733.000	-29.057	
733.100	-16.875	
733.200	-13.524	
733.300	-17.337	
733.400	-13.624	
733.500	-45.537	
733.600	-3.402	
733.700	-29.024	
733.800	-25.230	
733.900	-17.085	
734.000	-13.743	
734.100	-17.198	
734.200	-17.134	
734.300	-35.041	
734.400	-19.438	
734.500	5.960	
734.600	-9.944	
734.700	-5.700	
734.800	-14.862	
734.900	-37.098	
735.000	-18.159	
735.100	-10.656	
735.200	-4.018	
735.300	-7.634	
735.400	-23.016	
735.500	-4.356	
735.600	-17.572	
735.700	-20.019	
735.800	-1.869	
735.900	-17.172	
736.000	-17.867	
736.100	-6.133	
736.200	-32.881	
736.300	-12.956	
736.400	-10.877	
736.500	-17.158	
736.600	-31.737	
736.700	5.360	
736.800	-13.025	
736.900	-10.224	
737.000	-2.186	
737.100	-7.398	
737.200	-34.816	
737.300	-17.507	
737.400	-3.708	
737.500	-18.590	
737.600	-5.070	
737.700	-7.276	
737.800	-16.792	
737.900	-40.008	
738.000	-29.226	
738.100	-8.485	
738.200	5.743	
738.300	-29.274	
738.400	-12.877	
738.500	-22.863	
738.600	-20.905	
738.700	-13.471	
738.800	-19.447	
738.900	-16.575	
739.000	-26.902	
739.100	-19.845	
739.200	-6.846	
739.300	-11.996	
739.400	-12.966	
739.500	-20.389	
739.600	-12.913	
739.700	-16.047	
739.800	-14.393	
739.900	-9.987	
740.000	-9.620	
740.100	-10.752	
740.200	-12.428	
740.300	-28.690	
740.400	-12.321	
740.500	-14.586	
740.600	-1.531	
740.700	-16.073	
740.800	-19.278	
740.900	-12.860	
741.000	-18.461	
741.100	-26.506	
741.200	9.317	
741.300	-42.656	
741.400	-15.519	
741.500	-37.235	
741.600	-16.872	
741.700	-10.308	
741.800	4.143	
741.900	-32.774	
742.000	-15.712	
742.100	-30.894	
742.200	-21.336	
742.300	-5.512	
742.400	-3.176	
742.500	-8.699	
742.600	-15.430	
742.700	-23.418	
742.800	-13.782	
742.900	-2.381	
743.000	-8.529	
743.100	-23.476	
743.200	3.672	
743.300	-21.375	
743.400	-6.745	
743.500	-12.735	
743.600	-19.807	
743.700	-18.849	
743.800	-16.214	
743.900	-23.621	
744.000	-31.964	
744.100	-4.263	
744.200	0.898	
744.300	-24.382	
744.400	-15.721	
744.500	-9.698	
744.600	-15.904	
744.700	-1.274	
744.800	-23.022	
744.900	-15.716	
745.000	-14.222	
745.100	-10.109	
745.200	-12.514	
745.300	-12.427	
745.400	-3.105	
745.500	-9.774	
745.600	-8.938	
745.700	-23.518	
745.800	-4.091	
745.900	-14.478	
746.000	-14.557	
746.100	-34.203	
746.200	-17.130	
746.300	-10.740	
746.400	-13.891	
746.500	-10.200	
746.600	-20.043	
746.700	-21.127	
746.800	-7.811	
746.900	-25.697	
747.000	-16.098	
747.100	-22.539	
747.200	-18.990	
747.300	-18.187	
747.400	-8.023	
747.500	-9.436	
747.600	-7.709	
747.700	-26.182	
747.800	-25.820	
747.900	-36.353	
748.000	9.016	
748.100	-13.665	
748.200	-22.590	
748.300	-15.576	
748.400	-19.441	
748.500	-16.230	
748.600	8.484	
748.700	0.674	
748.800	-18.640	
748.900	-7.286	
749.000	-16.594	
749.100	-24.946	
749.200	10.281	
749.300	-8.385	
749.400	-33.485	
749.500	-6.397	
749.600	-18.384	
749.700	-15.505	
749.800	-0.771	
749.900	-38.083	
750.000	-8.317	
750.100	-25.879	
750.200	-15.118	
750.300	-18.841	
750.400	3.162	
750.500	-11.738	
750.600	-10.007	
750.700	-25.010	
750.800	-27.408	
750.900	-5.318	
751.000	2.450	
751.100	1.915	
751.200	-7.128	
751.300	-23.910	
751.400	-27.507	
751.500	-8.522	
751.600	-19.231	
751.700	-0.824	
751.800	-24.662	
751.900	-4.200	
752.000	-21.885	
752.100	-13.479	
752.200	-22.993	
752.300	2.187	
752.400	-4.988	
752.500	-29.538	
752.600	-9.612	
752.700	-2.848	
752.800	-16.542	
752.900	-5.717	
753.000	-5.364	
753.100	-22.989	
753.200	-4.070	
753.300	-22.381	
753.400	13.791	
753.500	-32.828	
753.600	-6.131	
753.700	-16.506	
753.800	-5.685	
753.900	-9.892	
754.000	-20.041	
754.100	-22.904	
754.200	-3.387	
754.300	3.028	
754.400	-23.302	
754.500	-4.700	
754.600	-10.227	
754.700	-1.224	
754.800	-16.247	
754.900	-21.800	
755.000	-18.178	
755.100	-5.660	
755.200	-21.802	
755.300	3.109	
755.400	-4.700	
755.500	-23.890	
755.600	-13.089	
755.700	-14.520	
755.800	-3.991	
755.900	-15.358	
756.000	-10.893	
756.100	-13.565	
756.200	4.652	
756.300	-5.228	
756.400	-23.688	
756.500	-7.583	
756.600	-12.104	
756.700	-28.505	
756.800	-9.208	
756.900	7.226	
757.000	-7.135	
757.100	-26.276	
757.200	-20.605	
757.300	-13.191	
757.400	-16.098	
757.500	-7.047	
757.600	-12.495	
757.700	-21.675	
757.800	-16.225	
757.900	-21.489	
758.000	2.117	
758.100	-2.033	
758.200	-7.253	
758.300	-23.698	
758.400	-16.620	
758.500	-20.210	
758.600	-18.021	
758.700	-15.044	
758.800	-0.776	
758.900	-10.921	
759.000	-29.558	
759.100	-13.905	
759.200	-1.709	
759.300	1.089	
759.400	-29.017	
759.500	-9.330	
759.600	-12.522	
759.700	-17.029	
759.800	4.263	
759.900	-12.647	
760.000	-9.181	
760.100	-24.453	
760.200	-16.827	
760.300	-13.027	
760.400	7.319	
760.500	-13.794	
760.600	-14.106	
760.700	3.821	
760.800	-10.552	
760.900	-7.363	
761.000	-9.558	
761.100	-4.741	
761.200	-2.802	
761.300	-18.238	
761.400	-8.841	
761.500	-5.209	
761.600	-0.897	
761.700	-20.008	
761.800	-40.782	
761.900	-11.394	
762.000	-12.209	
762.100	-8.554	
762.200	1.027	
762.300	-19.476	
762.400	-6.133	
762.500	-14.834	
762.600	-9.462	
762.700	-17.309	
762.800	-6.217	
762.900	-7.526	
763.000	-18.307	
763.100	-11.593	
763.200	-24.282	
763.300	-2.810	
763.400	-18.178	
763.500	-15.494	
763.600	-8.447	
763.700	-31.095	
763.800	-2.087	
763.900	-3.451	
764.000	-27.364	
764.100	-14.982	
764.200	-4.433	
764.300	-25.195	
764.400	-14.333	
764.500	-12.981	
764.600	-16.260	
764.700	-17.699	
764.800	-22.730	
764.900	5.112	
765.000	-6.461	
765.100	17.469	
765.200	-27.008	
765.300	-22.130	
765.400	-11.677	
765.500	-4.551	
765.600	-15.735	
765.700	-3.611	
765.800	-25.254	
765.900	-22.259	
766.000	-4.855	
766.100	-6.599	
766.200	-9.808	
766.300	-21.040	
766.400	-8.483	
766.500	-34.535	
766.600	-9.526	
766.700	-14.767	
766.800	-5.792	
766.900	-18.353	
767.000	-4.661	
767.100	-17.148	
767.200	-30.967	
767.300	-6.901	
767.400	-14.895	
767.500	-25.222	
767.600	-8.364	
767.700	-26.403	
767.800	-21.618	
767.900	-8.347	
768.000	-3.447	
768.100	4.438	
768.200	-20.038	
768.300	-33.880	
768.400	-12.322	
768.500	-6.167	
768.600	-3.122	
768.700	-38.017	
768.800	-12.418	
768.900	-8.550	
769.000	2.393	
769.100	-2.936	
769.200	-13.106	
769.300	-14.131	
769.400	-27.747	
769.500	-21.573	
769.600	1.550	
769.700	2.286	
769.800	-10.203	
769.900	-13.011	
770.000	-27.548	
770.100	-15.066	
770.200	-4.203	
770.300	-6.710	
770.400	-9.260	
770.500	-21.748	
770.600	-27.512	
770.700	-7.727	
770.800	-25.113	
770.900	-16.125	
771.000	-18.947	
771.100	-16.520	
771.200	-8.624	
771.300	-7.232	
771.400	-9.281	
771.500	-0.714	
771.600	-19.320	
771.700	-14.035	
771.800	-2.193	
771.900	-19.020	
772.000	10.674	
772.100	-11.727	
772.200	-23.449	
772.300	-13.581	
772.400	-14.278	
772.500	-25.879	
772.600	-9.935	
772.700	-0.925	
772.800	-31.044	
772.900	-22.763	
773.000	-20.501	
773.100	3.443	
773.200	-1.955	
773.300	-16.131	
773.400	2.863	
773.500	-9.178	
773.600	-3.594	
773.700	-19.042	
773.800	-8.365	
773.900	-19.463	
774.000	-10.241	
774.100	-17.271	
774.200	-1.634	
774.300	-15.549	
774.400	-11.069	
774.500	-7.330	
774.600	-11.744	
774.700	-15.725	
774.800	-13.679	
774.900	-6.535	
775.000	-15.383	
775.100	-9.492	
775.200	-2.893	
775.300	-38.240	
775.400	5.581	
775.500	-24.066	
775.600	-24.246	
775.700	-11.023	
775.800	-6.531	
775.900	-26.899	
776.000	-6.349	
776.100	-10.506	
776.200	-12.160	
776.300	-8.512	
776.400	-30.966	
776.500	-20.050	
776.600	-8.053	
776.700	-2.816	
776.800	-8.327	
776.900	-12.554	
777.000	-8.475	
777.100	-14.490	
777.200	0.241	
777.300	0.563	
777.400	-19.856	
777.500	-14.616	
777.600	-20.251	
777.700	-19.351	
777.800	-8.191	
777.900	-3.522	
778.000	7.202	
778.100	-3.377	
778.200	-10.094	
778.300	-24.468	
778.400	-7.247	
778.500	-7.059	
778.600	-7.707	
778.700	-12.437	
778.800	-14.048	
778.900	-10.672	
779.000	-11.739	
779.100	-22.899	
779.200	-25.166	
779.300	3.943	
779.400	-15.406	
779.500	-12.666	
779.600	-3.820	
779.700	-9.892	
779.800	-6.347	
779.900	-8.995	
780.000	-25.770	
780.100	-10.677	
780.200	-24.015	
780.300	-24.345	
780.400	-5.349	
780.500	-20.838	
780.600	4.094	
780.700	3.507	
780.800	-5.356	
780.900	-7.433	
781.000	-8.847	
781.100	-7.287	
781.200	10.313	
781.300	-17.247	
781.400	-6.734	
781.500	26.139	
781.600	-1.619	
781.700	-10.179	
781.800	6.329	
781.900	6.167	
782.000	5.183	
782.100	10.049	
782.200	1.263	
782.300	12.334	
782.400	-5.785	
782.500	9.730	
782.600	16.061	
782.700	19.931	
782.800	6.501	
782.900	1.583	
783.000	3.269	
783.100	14.709	
783.200	9.415	
783.300	13.299	
783.400	-16.658	
783.500	22.031	
783.600	18.448	
783.700	8.476	
783.800	18.062	
783.900	9.888	
784.000	6.420	
784.100	23.899	
784.200	22.875	
784.300	5.457	
784.400	34.103	
784.500	-3.550	
784.600	22.281	
784.700	0.632	
784.800	27.788	
784.900	16.932	
785.000	19.290	
785.100	21.972	
785.200	30.533	
785.300	9.315	
785.400	11.382	
785.500	9.823	
785.600	18.405	
785.700	-10.522	
785.800	28.115	
785.900	26.744	
786.000	32.314	
786.100	16.892	
786.200	13.349	
786.300	21.374	
786.400	9.636	
786.500	34.305	
786.600	20.522	
786.700	24.445	
786.800	5.363	
786.900	32.185	
787.000	23.127	
787.100	36.201	
787.200	25.995	
787.300	3.364	
787.400	15.764	
787.500	24.659	
787.600	16.625	
787.700	24.985	
787.800	34.644	
787.900	30.113	
788.000	18.304	
788.100	16.592	
788.200	-0.781	
788.300	32.891	
788.400	26.431	
788.500	23.599	
788.600	29.409	
788.700	25.484	
788.800	21.316	
788.900	26.602	
789.000	19.017	
789.100	14.120	
789.200	30.305	
789.300	28.755	
789.400	13.378	
789.500	28.296	
789.600	26.963	
789.700	40.737	
789.800	29.613	
789.900	8.064	
790.000	19.159	
790.100	25.281	
790.200	54.174	
790.300	35.759	
790.400	16.687	
790.500	31.974	
790.600	29.034	
790.700	41.784	
790.800	30.088	
790.900	5.522	
791.000	13.650	
791.100	1.625	
791.200	30.996	
791.300	24.793	
791.400	40.306	
791.500	20.027	
791.600	21.540	
791.700	35.404	
791.800	17.684	
791.900	24.748	
792.000	34.866	
792.100	37.426	
792.200	23.181	
792.300	10.320	
792.400	14.103	
792.500	35.715	
792.600	27.715	
792.700	31.004	
792.800	16.754	
792.900	19.423	
793.000	28.662	
793.100	29.110	
793.200	25.037	
793.300	27.068	
793.400	24.806	
793.500	15.714	
793.600	38.286	
793.700	32.106	
793.800	12.075	
793.900	14.621	
794.000	33.850	
794.100	31.638	
794.200	32.960	
794.300	31.037	
794.400	21.179	
794.500	39.481	
794.600	14.193	
794.700	37.547	
794.800	30.299	
794.900	31.469	
795.000	30.715	
795.100	11.963	
795.200	19.682	
795.300	41.654	
795.400	32.994	
795.500	31.013	
795.600	19.757	
795.700	4.400	
795.800	5.668	
795.900	37.544	
796.000	31.331	
796.100	49.151	
796.200	26.517	
796.300	5.580	
796.400	22.085	
796.500	42.399	
796.600	20.592	
796.700	30.282	
796.800	29.058	
796.900	23.566	
797.000	27.602	
797.100	13.036	
797.200	36.730	
797.300	1.951	
797.400	39.860	
797.500	24.310	
797.600	26.701	
797.700	28.738	
797.800	29.962	
797.900	20.369	
798.000	31.349	
798.100	19.195	
798.200	26.234	
798.300	37.834	
798.400	40.233	
798.500	8.690	
798.600	22.056	
798.700	20.891	
798.800	23.942	
798.900	30.872	
799.000	24.051	
799.100	33.947	
799.200	21.490	
799.300	21.981	
799.400	30.500	
799.500	25.520	
799.600	18.529	
799.700	22.288	
799.800	31.654	
799.900	7.224	
800.000	27.935	
