time /s	I /nA	
0.100	48.859	
0.200	16.349	
0.300	-1.058	
0.400	6.874	
0.500	-3.338	
0.600	-11.098	
0.700	3.287	
0.800	1.715	
0.900	-4.947	
1.000	-7.796	
1.100	7.117	
1.200	-0.264	
1.300	-9.976	
1.400	-3.239	
1.500	4.639	
1.600	7.246	
1.700	-5.677	
1.800	2.264	
1.900	-7.519	
2.000	-12.341	
2.100	-12.033	
2.200	10.559	
2.300	-0.700	
2.400	-11.432	
2.500	-2.227	
2.600	2.854	
2.700	-7.045	
2.800	-8.811	
2.900	-1.620	
3.000	7.351	
3.100	7.718	
3.200	-1.528	
3.300	-17.082	
3.400	-17.608	
3.500	-2.333	
3.600	-9.565	
3.700	11.685	
3.800	-7.168	
3.900	-5.796	
4.000	11.205	
4.100	-6.975	
4.200	4.276	
4.300	2.191	
4.400	-9.074	
4.500	-15.183	
4.600	-6.339	
4.700	3.690	
4.800	6.241	
4.900	3.804	
5.000	-9.269	
5.100	-9.060	
5.200	-8.623	
5.300	11.101	
5.400	-0.777	
5.500	-9.074	
5.600	-3.377	
5.700	-19.189	
5.800	19.014	
5.900	-5.845	
6.000	-0.624	
6.100	-6.352	
6.200	10.516	
6.300	-2.585	
6.400	-16.588	
6.500	-15.346	
6.600	20.457	
6.700	-4.304	
6.800	-13.971	
6.900	-8.484	
7.000	1.267	
7.100	17.135	
7.200	0.992	
7.300	-16.108	
7.400	-13.527	
7.500	-15.216	
7.600	-1.361	
7.700	2.585	
7.800	-23.794	
7.900	3.843	
8.000	-0.483	
8.100	6.067	
8.200	-3.546	
8.300	-13.251	
8.400	12.508	
8.500	-10.216	
8.600	-0.654	
8.700	10.653	
8.800	5.150	
8.900	8.623	
9.000	-0.890	
9.100	-2.754	
9.200	-14.895	
9.300	-1.602	
9.400	-1.221	
9.500	-6.298	
9.600	-2.085	
9.700	-0.460	
9.800	-9.193	
9.900	-12.229	
10.000	15.994	
10.100	-8.094	
10.200	3.762	
10.300	-10.255	
10.400	13.665	
10.500	-9.345	
10.600	5.984	
10.700	8.251	
10.800	-11.150	
10.900	-13.697	
11.000	-12.678	
11.100	-8.600	
11.200	-4.387	
11.300	-26.037	
11.400	0.515	
11.500	-3.083	
11.600	-9.013	
11.700	-7.946	
11.800	0.557	
11.900	-2.739	
12.000	-21.379	
12.100	-25.092	
12.200	2.314	
12.300	12.637	
12.400	-4.271	
12.500	-2.911	
12.600	0.852	
12.700	-10.504	
12.800	-1.918	
12.900	-2.084	
13.000	1.437	
13.100	-14.399	
13.200	-9.926	
13.300	1.245	
13.400	-5.612	
13.500	6.957	
13.600	2.392	
13.700	-0.784	
13.800	-9.175	
13.900	-20.097	
14.000	19.765	
14.100	-0.132	
14.200	-4.766	
14.300	-9.150	
14.400	-5.714	
14.500	-29.331	
14.600	9.654	
14.700	14.213	
14.800	-26.561	
14.900	2.691	
15.000	7.969	
15.100	-0.171	
15.200	-0.746	
15.300	4.048	
15.400	-2.181	
15.500	-6.332	
15.600	-2.897	
15.700	-27.173	
15.800	-13.705	
15.900	-2.650	
16.000	11.193	
16.100	-6.638	
16.200	-14.502	
16.300	-22.399	
16.400	-7.643	
16.500	0.728	
16.600	-11.116	
16.700	-12.702	
16.800	-10.258	
16.900	-0.173	
17.000	3.708	
17.100	2.274	
17.200	-11.752	
17.300	-13.171	
17.400	-3.195	
17.500	-2.719	
17.600	8.135	
17.700	13.702	
17.800	-9.276	
17.900	4.970	
18.000	-14.094	
18.100	-16.590	
18.200	-5.144	
18.300	-15.731	
18.400	15.650	
18.500	15.338	
18.600	-8.777	
18.700	-14.545	
18.800	-4.979	
18.900	0.936	
19.000	-16.317	
19.100	-13.727	
19.200	-13.635	
19.300	-5.936	
19.400	-5.025	
19.500	7.151	
19.600	-6.564	
19.700	-4.074	
19.800	-3.889	
19.900	-8.210	
20.000	11.338	
20.100	-10.431	
20.200	-21.360	
20.300	1.705	
20.400	6.504	
20.500	-19.527	
20.600	15.066	
20.700	-15.741	
20.800	-14.640	
20.900	-20.293	
21.000	3.845	
21.100	16.282	
21.200	4.154	
21.300	-3.132	
21.400	3.253	
21.500	-15.812	
21.600	-8.564	
21.700	-12.933	
21.800	0.149	
21.900	-10.684	
22.000	-4.863	
22.100	-26.474	
22.200	1.001	
22.300	8.271	
22.400	13.598	
22.500	-11.723	
22.600	-23.050	
22.700	8.227	
22.800	-10.955	
22.900	-16.951	
23.000	9.681	
23.100	-3.786	
23.200	1.289	
23.300	2.184	
23.400	-0.231	
23.500	-13.980	
23.600	1.440	
23.700	-0.234	
23.800	-26.326	
23.900	-6.600	
24.000	-4.556	
24.100	-9.224	
24.200	-4.732	
24.300	-3.121	
24.400	23.408	
24.500	-30.549	
24.600	-19.871	
24.700	11.172	
24.800	-7.165	
24.900	3.486	
25.000	-14.750	
25.100	-2.307	
25.200	19.064	
25.300	17.974	
25.400	-6.794	
25.500	-13.887	
25.600	12.354	
25.700	-2.895	
25.800	-3.262	
25.900	10.251	
26.000	-6.847	
26.100	1.083	
26.200	-20.777	
26.300	-11.838	
26.400	5.937	
26.500	-6.669	
26.600	-20.729	
26.700	-4.197	
26.800	12.822	
26.900	-1.995	
27.000	13.903	
27.100	-13.121	
27.200	-5.730	
27.300	-7.819	
27.400	-2.963	
27.500	6.578	
27.600	-24.871	
27.700	-16.735	
27.800	8.280	
27.900	5.165	
28.000	21.191	
28.100	-8.240	
28.200	4.856	
28.300	-8.407	
28.400	0.407	
28.500	-16.707	
28.600	-9.268	
28.700	12.396	
28.800	14.942	
28.900	-5.122	
29.000	-6.173	
29.100	-15.519	
29.200	-17.643	
29.300	15.735	
29.400	4.252	
29.500	-2.444	
29.600	-5.704	
29.700	-5.395	
29.800	-8.601	
29.900	-10.530	
30.000	6.756	
30.100	-13.939	
30.200	-2.035	
30.300	19.073	
30.400	20.856	
30.500	9.757	
30.600	23.990	
30.700	19.168	
30.800	3.847	
30.900	-0.464	
31.000	4.856	
31.100	29.640	
31.200	29.024	
31.300	-16.739	
31.400	22.271	
31.500	22.458	
31.600	2.000	
31.700	33.114	
31.800	21.216	
31.900	13.169	
32.000	15.253	
32.100	24.226	
32.200	32.774	
32.300	31.398	
32.400	7.863	
32.500	32.040	
32.600	19.364	
32.700	29.695	
32.800	12.227	
32.900	23.666	
33.000	19.950	
33.100	29.184	
33.200	16.479	
33.300	25.322	
33.400	18.238	
33.500	26.934	
33.600	12.770	
33.700	28.310	
33.800	4.615	
33.900	17.506	
34.000	51.830	
34.100	24.326	
34.200	29.824	
34.300	29.874	
34.400	32.191	
34.500	33.817	
34.600	25.639	
34.700	32.154	
34.800	42.859	
34.900	42.567	
35.000	23.856	
35.100	49.448	
35.200	32.641	
35.300	33.112	
35.400	18.010	
35.500	27.700	
35.600	32.601	
35.700	42.517	
35.800	28.196	
35.900	37.149	
36.000	19.521	
36.100	33.458	
36.200	38.341	
36.300	34.394	
36.400	30.806	
36.500	33.028	
36.600	26.371	
36.700	33.333	
36.800	28.115	
36.900	36.696	
37.000	25.441	
37.100	33.653	
37.200	23.046	
37.300	25.472	
37.400	55.020	
37.500	49.950	
37.600	45.411	
37.700	34.046	
37.800	14.469	
37.900	19.937	
38.000	26.647	
38.100	47.390	
38.200	45.469	
38.300	8.805	
38.400	25.173	
38.500	39.609	
38.600	42.610	
38.700	40.290	
38.800	46.558	
38.900	23.315	
39.000	13.035	
39.100	31.401	
39.200	53.841	
39.300	31.669	
39.400	31.782	
39.500	41.265	
39.600	14.649	
39.700	35.899	
39.800	53.731	
39.900	40.707	
40.000	36.174	
40.100	29.514	
40.200	34.894	
40.300	48.589	
40.400	41.024	
40.500	56.092	
40.600	20.514	
40.700	37.587	
40.800	45.419	
40.900	31.741	
41.000	52.425	
41.100	35.068	
41.200	34.838	
41.300	19.147	
41.400	37.062	
41.500	33.383	
41.600	45.475	
41.700	31.024	
41.800	37.434	
41.900	22.335	
42.000	52.180	
42.100	50.991	
42.200	49.958	
42.300	50.468	
42.400	23.435	
42.500	18.161	
42.600	41.180	
42.700	46.308	
42.800	36.260	
42.900	46.887	
43.000	32.450	
43.100	34.435	
43.200	20.834	
43.300	28.637	
43.400	52.619	
43.500	39.832	
43.600	49.504	
43.700	39.244	
43.800	43.300	
43.900	23.231	
44.000	38.294	
44.100	19.364	
44.200	32.946	
44.300	44.832	
44.400	33.030	
44.500	44.607	
44.600	36.101	
44.700	31.566	
44.800	35.602	
44.900	35.898	
45.000	51.352	
45.100	37.409	
45.200	38.695	
45.300	55.346	
45.400	39.541	
45.500	29.305	
45.600	40.603	
45.700	17.643	
45.800	24.150	
45.900	40.565	
46.000	36.725	
46.100	42.506	
46.200	25.794	
46.300	33.421	
46.400	25.645	
46.500	51.671	
46.600	34.646	
46.700	50.245	
46.800	52.413	
46.900	42.798	
47.000	52.742	
47.100	22.476	
47.200	35.706	
47.300	33.046	
47.400	59.061	
47.500	33.067	
47.600	45.303	
47.700	12.555	
47.800	37.647	
47.900	55.045	
48.000	28.926	
48.100	30.677	
48.200	26.372	
48.300	48.001	
48.400	43.581	
48.500	37.132	
48.600	58.560	
48.700	26.439	
48.800	26.349	
48.900	34.157	
49.000	53.276	
49.100	55.026	
49.200	37.031	
49.300	57.699	
49.400	42.422	
49.500	20.257	
49.600	35.123	
49.700	50.299	
49.800	43.746	
49.900	37.074	
50.000	44.725	
50.100	28.908	
50.200	42.443	
50.300	47.914	
50.400	41.138	
50.500	36.299	
50.600	39.865	
50.700	25.729	
50.800	67.347	
50.900	67.315	
51.000	39.936	
51.100	57.453	
51.200	17.406	
51.300	33.934	
51.400	50.849	
51.500	40.259	
51.600	53.666	
51.700	31.372	
51.800	39.904	
51.900	40.343	
52.000	46.436	
52.100	55.583	
52.200	54.980	
52.300	17.452	
52.400	31.445	
52.500	37.889	
52.600	53.644	
52.700	48.579	
52.800	54.292	
52.900	43.927	
53.000	38.540	
53.100	24.970	
53.200	38.782	
53.300	42.758	
53.400	55.318	
53.500	44.690	
53.600	26.276	
53.700	47.760	
53.800	45.405	
53.900	34.140	
54.000	50.138	
54.100	30.576	
54.200	25.359	
54.300	39.420	
54.400	57.604	
54.500	37.303	
54.600	55.442	
54.700	42.689	
54.800	40.228	
54.900	48.836	
55.000	56.982	
55.100	32.303	
55.200	45.643	
55.300	26.591	
55.400	50.814	
55.500	34.846	
55.600	74.567	
55.700	36.668	
55.800	32.641	
55.900	39.136	
56.000	43.665	
56.100	48.473	
56.200	57.919	
56.300	70.133	
56.400	51.153	
56.500	45.161	
56.600	28.638	
56.700	29.942	
56.800	38.095	
56.900	62.600	
57.000	50.421	
57.100	8.813	
57.200	50.951	
57.300	61.708	
57.400	56.539	
57.500	52.525	
57.600	43.016	
57.700	33.639	
57.800	44.438	
57.900	33.883	
58.000	51.032	
58.100	48.933	
58.200	49.838	
58.300	17.530	
58.400	58.861	
58.500	54.040	
58.600	57.908	
58.700	39.762	
58.800	38.004	
58.900	28.763	
59.000	24.034	
59.100	40.922	
59.200	45.139	
59.300	42.882	
59.400	53.222	
59.500	56.652	
59.600	39.883	
59.700	63.030	
59.800	38.352	
59.900	49.022	
60.000	40.800	
60.100	56.183	
60.200	54.183	
60.300	75.109	
60.400	49.091	
60.500	29.892	
60.600	28.598	
60.700	44.853	
60.800	72.540	
60.900	51.005	
61.000	36.009	
61.100	44.598	
61.200	33.748	
61.300	41.640	
61.400	53.760	
61.500	39.994	
61.600	39.894	
61.700	45.641	
61.800	41.577	
61.900	57.473	
62.000	59.757	
62.100	51.698	
62.200	39.938	
62.300	25.260	
62.400	47.775	
62.500	46.994	
62.600	66.775	
62.700	49.734	
62.800	36.297	
62.900	46.192	
63.000	46.451	
63.100	64.012	
63.200	55.263	
63.300	51.531	
63.400	35.049	
63.500	54.008	
63.600	52.804	
63.700	30.185	
63.800	44.809	
63.900	43.048	
64.000	50.355	
64.100	45.147	
64.200	44.754	
64.300	56.421	
64.400	46.768	
64.500	59.778	
64.600	33.173	
64.700	64.389	
64.800	26.205	
64.900	47.061	
65.000	53.735	
65.100	35.010	
65.200	30.899	
65.300	47.859	
65.400	68.843	
65.500	45.135	
65.600	47.596	
65.700	56.648	
65.800	37.818	
65.900	50.122	
66.000	61.869	
66.100	60.049	
66.200	46.629	
66.300	42.341	
66.400	31.857	
66.500	39.291	
66.600	48.575	
66.700	41.113	
66.800	55.801	
66.900	39.405	
67.000	37.876	
67.100	38.997	
67.200	72.479	
67.300	63.929	
67.400	36.884	
67.500	58.910	
67.600	47.117	
67.700	25.935	
67.800	59.076	
67.900	67.440	
68.000	24.431	
68.100	55.670	
68.200	44.357	
68.300	44.653	
68.400	62.532	
68.500	43.665	
68.600	74.500	
68.700	50.901	
68.800	54.796	
68.900	45.231	
69.000	50.462	
69.100	37.849	
69.200	44.838	
69.300	53.480	
69.400	47.081	
69.500	43.187	
69.600	61.967	
69.700	70.467	
69.800	65.501	
69.900	37.917	
70.000	20.389	
70.100	55.566	
70.200	53.891	
70.300	68.718	
70.400	55.322	
70.500	17.938	
70.600	41.519	
70.700	60.115	
70.800	70.591	
70.900	34.173	
71.000	46.848	
71.100	47.116	
71.200	50.047	
71.300	59.501	
71.400	69.824	
71.500	52.309	
71.600	41.986	
71.700	36.202	
71.800	66.303	
71.900	41.083	
72.000	45.301	
72.100	55.151	
72.200	50.242	
72.300	44.338	
72.400	58.164	
72.500	49.965	
72.600	61.779	
72.700	58.675	
72.800	50.080	
72.900	45.596	
73.000	66.114	
73.100	43.248	
73.200	40.519	
73.300	20.852	
73.400	48.602	
73.500	62.725	
73.600	38.823	
73.700	70.901	
73.800	53.941	
73.900	50.783	
74.000	44.313	
74.100	43.925	
74.200	47.466	
74.300	44.303	
74.400	44.762	
74.500	35.279	
74.600	36.940	
74.700	56.099	
74.800	59.947	
74.900	54.662	
75.000	64.912	
75.100	41.032	
75.200	42.644	
75.300	44.947	
75.400	47.743	
75.500	57.581	
75.600	51.116	
75.700	62.282	
75.800	39.099	
75.900	35.473	
76.000	43.075	
76.100	63.613	
76.200	39.325	
76.300	38.345	
76.400	27.432	
76.500	57.836	
76.600	41.983	
76.700	60.343	
76.800	51.978	
76.900	38.876	
77.000	47.554	
77.100	39.241	
77.200	50.098	
77.300	48.565	
77.400	40.260	
77.500	30.684	
77.600	49.084	
77.700	80.264	
77.800	68.618	
77.900	62.501	
78.000	39.605	
78.100	36.217	
78.200	42.373	
78.300	41.858	
78.400	41.865	
78.500	48.514	
78.600	57.200	
78.700	42.061	
78.800	24.474	
78.900	48.333	
79.000	55.717	
79.100	45.361	
79.200	60.971	
79.300	56.260	
79.400	52.991	
79.500	63.431	
79.600	33.718	
79.700	72.902	
79.800	59.340	
79.900	53.675	
80.000	54.111	
80.100	44.238	
80.200	50.000	
80.300	34.663	
80.400	46.520	
80.500	51.873	
80.600	44.969	
80.700	61.135	
80.800	64.452	
80.900	38.832	
81.000	59.873	
81.100	53.397	
81.200	55.697	
81.300	52.632	
81.400	65.911	
81.500	42.590	
81.600	40.771	
81.700	54.036	
81.800	71.804	
81.900	58.408	
82.000	67.606	
82.100	45.531	
82.200	38.031	
82.300	51.793	
82.400	48.230	
82.500	58.559	
82.600	62.402	
82.700	31.921	
82.800	54.559	
82.900	35.644	
83.000	50.826	
83.100	64.386	
83.200	76.748	
83.300	47.368	
83.400	66.044	
83.500	51.971	
83.600	46.256	
83.700	58.649	
83.800	50.806	
83.900	43.605	
84.000	39.374	
84.100	66.070	
84.200	69.936	
84.300	65.482	
84.400	41.502	
84.500	53.154	
84.600	42.485	
84.700	42.638	
84.800	62.285	
84.900	44.735	
85.000	52.825	
85.100	41.413	
85.200	44.056	
85.300	46.323	
85.400	52.922	
85.500	69.128	
85.600	50.269	
85.700	48.911	
85.800	48.403	
85.900	62.543	
86.000	51.806	
86.100	60.786	
86.200	16.270	
86.300	46.241	
86.400	74.109	
86.500	41.871	
86.600	53.646	
86.700	41.587	
86.800	51.264	
86.900	36.046	
87.000	56.904	
87.100	67.039	
87.200	67.943	
87.300	49.658	
87.400	48.941	
87.500	49.194	
87.600	50.815	
87.700	71.134	
87.800	53.837	
87.900	31.019	
88.000	48.834	
88.100	52.726	
88.200	50.483	
88.300	61.185	
88.400	45.950	
88.500	43.637	
88.600	30.425	
88.700	46.327	
88.800	52.682	
88.900	68.102	
89.000	48.985	
89.100	52.091	
89.200	40.952	
89.300	55.404	
89.400	58.818	
89.500	73.715	
89.600	46.633	
89.700	62.594	
89.800	38.275	
89.900	41.133	
90.000	55.685	
90.100	46.557	
90.200	53.452	
90.300	42.996	
90.400	27.469	
90.500	29.362	
90.600	35.462	
90.700	53.294	
90.800	18.276	
90.900	7.600	
91.000	28.941	
91.100	30.317	
91.200	29.611	
91.300	27.044	
91.400	49.183	
91.500	9.892	
91.600	6.242	
91.700	42.404	
91.800	24.438	
91.900	40.624	
92.000	15.682	
92.100	14.049	
92.200	17.138	
92.300	15.139	
92.400	25.656	
92.500	24.941	
92.600	23.359	
92.700	13.904	
92.800	17.605	
92.900	41.898	
93.000	51.852	
93.100	9.607	
93.200	15.991	
93.300	14.944	
93.400	14.315	
93.500	17.524	
93.600	-0.336	
93.700	20.813	
93.800	17.783	
93.900	12.202	
94.000	22.277	
94.100	17.500	
94.200	5.793	
94.300	6.808	
94.400	4.928	
94.500	32.804	
94.600	26.161	
94.700	-3.005	
94.800	19.465	
94.900	9.126	
95.000	12.699	
95.100	20.668	
95.200	32.847	
95.300	23.264	
95.400	1.218	
95.500	20.867	
95.600	3.680	
95.700	4.804	
95.800	19.373	
95.900	19.638	
96.000	-19.992	
96.100	24.811	
96.200	3.752	
96.300	14.747	
96.400	13.250	
96.500	29.916	
96.600	31.167	
96.700	-9.684	
96.800	-0.174	
96.900	-11.510	
97.000	26.105	
97.100	26.490	
97.200	1.112	
97.300	2.854	
97.400	-6.333	
97.500	1.304	
97.600	12.294	
97.700	-4.429	
97.800	6.042	
97.900	-27.286	
98.000	16.784	
98.100	13.886	
98.200	16.544	
98.300	16.953	
98.400	4.667	
98.500	18.757	
98.600	-8.703	
98.700	17.627	
98.800	12.948	
98.900	10.311	
99.000	12.297	
99.100	-4.012	
99.200	-5.289	
99.300	16.509	
99.400	9.076	
99.500	22.263	
99.600	-2.355	
99.700	4.941	
99.800	-13.168	
99.900	8.731	
100.000	21.975	
100.100	-4.558	
100.200	4.818	
100.300	-13.149	
100.400	7.811	
100.500	-4.809	
100.600	8.362	
100.700	12.488	
100.800	3.666	
100.900	-9.210	
101.000	-5.803	
101.100	15.182	
101.200	15.727	
101.300	9.854	
101.400	14.045	
101.500	-3.749	
101.600	-17.117	
101.700	-1.774	
101.800	3.068	
101.900	-8.865	
102.000	5.451	
102.100	-26.923	
102.200	12.552	
102.300	-15.104	
102.400	12.688	
102.500	-3.824	
102.600	-5.558	
102.700	-7.947	
102.800	6.644	
102.900	-1.328	
103.000	-24.658	
103.100	22.589	
103.200	-6.604	
103.300	11.621	
103.400	6.761	
103.500	10.254	
103.600	0.838	
103.700	-12.518	
103.800	0.671	
103.900	-4.134	
104.000	-12.447	
104.100	-3.243	
104.200	15.415	
104.300	-0.414	
104.400	12.317	
104.500	-23.384	
104.600	26.825	
104.700	-22.536	
104.800	12.946	
104.900	-3.143	
105.000	-37.388	
105.100	4.090	
105.200	-0.928	
105.300	6.222	
105.400	1.459	
105.500	-23.786	
105.600	-34.833	
105.700	-3.537	
105.800	4.922	
105.900	-4.504	
106.000	-5.216	
106.100	-7.129	
106.200	-13.128	
106.300	-12.308	
106.400	4.573	
106.500	12.588	
106.600	-12.842	
106.700	-18.537	
106.800	-5.019	
106.900	-4.791	
107.000	-7.555	
107.100	-14.694	
107.200	-10.340	
107.300	-13.501	
107.400	-9.865	
107.500	-8.025	
107.600	-6.443	
107.700	-4.105	
107.800	13.848	
107.900	-31.866	
108.000	-5.272	
108.100	-26.691	
108.200	-26.039	
108.300	6.531	
108.400	-14.577	
108.500	13.102	
108.600	-19.630	
108.700	0.515	
108.800	-19.827	
108.900	-0.934	
109.000	-5.949	
109.100	-5.407	
109.200	-15.257	
109.300	-21.174	
109.400	-1.848	
109.500	-4.048	
109.600	-9.901	
109.700	-14.750	
109.800	-13.133	
109.900	-34.501	
110.000	-4.840	
110.100	-16.346	
110.200	-19.842	
110.300	-22.561	
110.400	-36.961	
110.500	-4.806	
110.600	4.615	
110.700	-20.085	
110.800	-22.890	
110.900	-16.800	
111.000	-12.426	
111.100	-14.790	
111.200	7.980	
111.300	-1.346	
111.400	-22.676	
111.500	-30.162	
111.600	-21.456	
111.700	-21.103	
111.800	-13.362	
111.900	-21.876	
112.000	-16.698	
112.100	-15.360	
112.200	-26.115	
112.300	-4.658	
112.400	-18.473	
112.500	-35.116	
112.600	-45.837	
112.700	-20.094	
112.800	3.170	
112.900	-2.513	
113.000	-11.894	
113.100	-8.349	
113.200	-15.892	
113.300	-28.148	
113.400	-20.129	
113.500	-8.229	
113.600	-10.333	
113.700	-25.429	
113.800	-29.464	
113.900	-15.124	
114.000	0.202	
114.100	-11.962	
114.200	-18.324	
114.300	-24.609	
114.400	-23.627	
114.500	-29.967	
114.600	-5.432	
114.700	-12.805	
114.800	-15.679	
114.900	-22.814	
115.000	-53.458	
115.100	-16.076	
115.200	-9.692	
115.300	-43.745	
115.400	-8.243	
115.500	-9.491	
115.600	-25.746	
115.700	-7.072	
115.800	-22.292	
115.900	-17.565	
116.000	-6.170	
116.100	-21.527	
116.200	-28.508	
116.300	-1.648	
116.400	-19.140	
116.500	-13.250	
116.600	-25.165	
116.700	-20.698	
116.800	-37.414	
116.900	-9.858	
117.000	-3.246	
117.100	-35.965	
117.200	-27.558	
117.300	-17.801	
117.400	-15.062	
117.500	-12.362	
117.600	-3.684	
117.700	-40.657	
117.800	-14.274	
117.900	-28.551	
118.000	8.124	
118.100	-14.871	
118.200	-9.040	
118.300	-12.472	
118.400	-28.180	
118.500	-16.819	
118.600	-20.262	
118.700	-16.230	
118.800	-17.110	
118.900	-13.704	
119.000	-24.503	
119.100	-25.062	
119.200	-15.462	
119.300	-23.861	
119.400	-18.217	
119.500	-13.183	
119.600	-16.997	
119.700	-21.393	
119.800	-22.384	
119.900	-13.376	
120.000	-21.265	
120.100	-10.310	
120.200	-4.743	
120.300	-29.172	
120.400	-12.045	
120.500	-29.294	
120.600	-12.250	
120.700	-24.538	
120.800	-22.562	
120.900	-9.079	
121.000	-16.258	
121.100	-14.319	
121.200	-25.269	
121.300	-12.499	
121.400	-15.459	
121.500	-20.928	
121.600	-14.080	
121.700	-15.291	
121.800	-19.273	
121.900	-12.921	
122.000	-13.432	
122.100	-20.780	
122.200	-23.667	
122.300	-28.902	
122.400	-6.748	
122.500	-38.340	
122.600	-21.415	
122.700	-24.889	
122.800	0.378	
122.900	-15.379	
123.000	-25.758	
123.100	-23.775	
123.200	-15.359	
123.300	-12.419	
123.400	-4.250	
123.500	-14.616	
123.600	-5.574	
123.700	-18.423	
123.800	-33.399	
123.900	-19.520	
124.000	-29.101	
124.100	-21.297	
124.200	-8.356	
124.300	-21.176	
124.400	-3.854	
124.500	-18.682	
124.600	-5.165	
124.700	-8.411	
124.800	-24.051	
124.900	-23.140	
125.000	-16.684	
125.100	-10.713	
125.200	-53.804	
125.300	-18.610	
125.400	-36.178	
125.500	-32.718	
125.600	24.820	
125.700	-12.998	
125.800	-18.863	
125.900	-30.021	
126.000	-11.945	
126.100	-23.169	
126.200	-34.240	
126.300	-5.855	
126.400	-9.342	
126.500	-16.335	
126.600	-23.368	
126.700	-0.421	
126.800	-23.998	
126.900	-15.079	
127.000	-8.508	
127.100	-31.523	
127.200	-18.320	
127.300	-7.068	
127.400	-10.231	
127.500	-31.129	
127.600	-6.379	
127.700	-10.144	
127.800	-25.329	
127.900	-28.459	
128.000	1.181	
128.100	-6.313	
128.200	-13.455	
128.300	-30.386	
128.400	-11.419	
128.500	-38.887	
128.600	-5.342	
128.700	8.978	
128.800	-27.911	
128.900	-39.286	
129.000	-33.339	
129.100	-8.456	
129.200	-11.306	
129.300	-11.414	
129.400	-31.459	
129.500	-19.406	
129.600	-13.134	
129.700	-21.141	
129.800	1.659	
129.900	-32.298	
130.000	-37.500	
130.100	-38.083	
130.200	-18.898	
130.300	9.524	
130.400	-6.928	
130.500	-11.315	
130.600	-25.993	
130.700	-24.198	
130.800	-8.269	
130.900	-10.381	
131.000	11.132	
131.100	-20.709	
131.200	-34.276	
131.300	-28.018	
131.400	-21.637	
131.500	4.968	
131.600	-18.152	
131.700	-18.513	
131.800	-22.336	
131.900	-26.218	
132.000	-27.935	
132.100	-7.426	
132.200	-3.482	
132.300	-5.327	
132.400	-44.031	
132.500	-9.825	
132.600	-16.156	
132.700	1.475	
132.800	-12.302	
132.900	-16.796	
133.000	-50.033	
133.100	-18.620	
133.200	-25.157	
133.300	-16.891	
133.400	-12.179	
133.500	-29.668	
133.600	-13.367	
133.700	-24.637	
133.800	-23.656	
133.900	-10.100	
134.000	3.406	
134.100	-13.842	
134.200	-47.361	
134.300	-12.910	
134.400	-18.193	
134.500	6.365	
134.600	-25.065	
134.700	-27.730	
134.800	1.332	
134.900	-4.332	
135.000	-21.270	
135.100	-34.519	
135.200	-9.392	
135.300	-16.408	
135.400	-40.655	
135.500	-31.565	
135.600	-17.937	
135.700	-14.242	
135.800	-11.130	
135.900	-29.660	
136.000	-23.184	
136.100	-14.056	
136.200	-7.596	
136.300	-20.757	
136.400	-2.727	
136.500	-39.144	
136.600	-16.613	
136.700	-1.602	
136.800	-15.126	
136.900	-43.534	
137.000	-34.244	
137.100	-18.098	
137.200	-9.798	
137.300	-0.163	
137.400	-23.615	
137.500	-16.017	
137.600	-17.139	
137.700	-28.009	
137.800	-10.814	
137.900	-22.721	
138.000	-16.975	
138.100	9.162	
138.200	-24.373	
138.300	-7.213	
138.400	-34.946	
138.500	-10.479	
138.600	-27.886	
138.700	-9.893	
138.800	-12.218	
138.900	-14.977	
139.000	-19.208	
139.100	-26.499	
139.200	-13.782	
139.300	-2.132	
139.400	-26.335	
139.500	-31.317	
139.600	-28.226	
139.700	-15.442	
139.800	-29.263	
139.900	-10.418	
140.000	-19.098	
140.100	-16.057	
140.200	-25.237	
140.300	-5.359	
140.400	-15.749	
140.500	-22.644	
140.600	-30.018	
140.700	-16.830	
140.800	-18.321	
140.900	-10.929	
141.000	-7.604	
141.100	-26.318	
141.200	-21.710	
141.300	-6.617	
141.400	-9.770	
141.500	1.053	
141.600	-26.633	
141.700	-21.432	
141.800	-28.328	
141.900	-26.803	
142.000	-18.956	
142.100	-8.691	
142.200	-5.732	
142.300	-31.725	
142.400	-11.992	
142.500	-11.841	
142.600	-8.496	
142.700	-24.362	
142.800	-8.141	
142.900	-37.868	
143.000	5.663	
143.100	-31.164	
143.200	-23.118	
143.300	-2.867	
143.400	-19.224	
143.500	-15.179	
143.600	-10.855	
143.700	-11.558	
143.800	-16.230	
143.900	-10.407	
144.000	-30.955	
144.100	-7.166	
144.200	-31.778	
144.300	-16.276	
144.400	-15.949	
144.500	-3.782	
144.600	-4.090	
144.700	-23.363	
144.800	-18.308	
144.900	-18.910	
145.000	0.305	
145.100	-8.276	
145.200	-14.251	
145.300	-25.062	
145.400	-32.360	
145.500	-21.752	
145.600	-6.072	
145.700	-1.371	
145.800	-17.017	
145.900	-27.392	
146.000	-31.131	
146.100	8.163	
146.200	-14.247	
146.300	-26.237	
146.400	-26.689	
146.500	-24.130	
146.600	-1.542	
146.700	-8.758	
146.800	-31.549	
146.900	-24.938	
147.000	-16.855	
147.100	-26.534	
147.200	-31.837	
147.300	-17.910	
147.400	-31.657	
147.500	-4.710	
147.600	-14.934	
147.700	-31.808	
147.800	-6.987	
147.900	-13.880	
148.000	-11.158	
148.100	-32.174	
148.200	-25.279	
148.300	-36.580	
148.400	-5.089	
148.500	-21.071	
148.600	-10.691	
148.700	-9.144	
148.800	-1.423	
148.900	-4.651	
149.000	-3.172	
149.100	-14.410	
149.200	-22.829	
149.300	-11.944	
149.400	-29.501	
149.500	-34.221	
149.600	-3.950	
149.700	-4.382	
149.800	-20.485	
149.900	-22.065	
150.000	-14.323	
150.100	-3.410	
150.200	-1.314	
150.300	-19.658	
150.400	-18.575	
150.500	-22.171	
150.600	-20.146	
150.700	-6.532	
150.800	12.252	
150.900	-18.659	
151.000	1.492	
151.100	-24.727	
151.200	-30.539	
151.300	-20.529	
151.400	-10.637	
151.500	-13.111	
151.600	-16.157	
151.700	-14.229	
151.800	-23.196	
151.900	1.682	
152.000	-37.133	
152.100	-3.621	
152.200	-13.130	
152.300	-33.438	
152.400	-13.979	
152.500	12.292	
152.600	-28.063	
152.700	-15.695	
152.800	-13.881	
152.900	-19.062	
153.000	-8.539	
153.100	-28.177	
153.200	19.308	
153.300	-12.160	
153.400	-24.674	
153.500	-11.694	
153.600	-17.115	
153.700	-0.981	
153.800	-1.554	
153.900	-42.498	
154.000	-37.544	
154.100	-27.358	
154.200	11.057	
154.300	-10.871	
154.400	-16.921	
154.500	-6.285	
154.600	-33.866	
154.700	-19.462	
154.800	-14.380	
154.900	-3.194	
155.000	-11.501	
155.100	-22.945	
155.200	-8.025	
155.300	-22.712	
155.400	-1.080	
155.500	-7.241	
155.600	-8.094	
155.700	-26.133	
155.800	-38.524	
155.900	-14.611	
156.000	-7.828	
156.100	-14.215	
156.200	-15.289	
156.300	-22.539	
156.400	-26.450	
156.500	-13.978	
156.600	-24.984	
156.700	-29.010	
156.800	-2.427	
156.900	-19.782	
157.000	-33.758	
157.100	-17.529	
157.200	-9.740	
157.300	-11.281	
157.400	14.767	
157.500	-33.958	
157.600	0.369	
157.700	-29.154	
157.800	-14.254	
157.900	-5.319	
158.000	-14.091	
158.100	-35.722	
158.200	-16.329	
158.300	-14.845	
158.400	-0.394	
158.500	-6.195	
158.600	-24.585	
158.700	-13.097	
158.800	-14.099	
158.900	-26.168	
159.000	-15.630	
159.100	-7.888	
159.200	-9.690	
159.300	-13.621	
159.400	-9.116	
159.500	-15.522	
159.600	-19.299	
159.700	-7.403	
159.800	-16.572	
159.900	-41.966	
160.000	-25.261	
160.100	-15.126	
160.200	-7.801	
160.300	-17.925	
160.400	-24.020	
160.500	-31.052	
160.600	-8.637	
160.700	-6.635	
160.800	-16.494	
160.900	-9.269	
161.000	-6.918	
161.100	-15.307	
161.200	-33.287	
161.300	-4.669	
161.400	-9.630	
161.500	-8.666	
161.600	-17.859	
161.700	-19.438	
161.800	-31.741	
161.900	-17.546	
162.000	-5.634	
162.100	-1.137	
162.200	-26.837	
162.300	-27.365	
162.400	-6.855	
162.500	-2.010	
162.600	-22.287	
162.700	-26.694	
162.800	-1.844	
162.900	-0.868	
163.000	23.500	
163.100	15.582	
163.200	11.847	
163.300	-10.019	
163.400	-18.143	
163.500	0.068	
163.600	-17.462	
163.700	14.847	
163.800	-7.346	
163.900	-23.611	
164.000	-7.260	
164.100	-25.080	
164.200	-8.273	
164.300	2.634	
164.400	-13.371	
164.500	-15.250	
164.600	-47.653	
164.700	4.588	
164.800	1.072	
164.900	-17.444	
165.000	-15.976	
165.100	-20.150	
165.200	-0.913	
165.300	-2.932	
165.400	-0.696	
165.500	-7.133	
165.600	6.493	
165.700	-29.600	
165.800	-10.967	
165.900	-19.594	
166.000	-2.896	
166.100	-15.144	
166.200	-11.838	
166.300	-19.033	
166.400	-11.958	
166.500	-11.548	
166.600	-19.901	
166.700	-19.759	
166.800	2.555	
166.900	-8.968	
167.000	-9.330	
167.100	-4.067	
167.200	-19.377	
167.300	-16.782	
167.400	-10.295	
167.500	-0.067	
167.600	-4.982	
167.700	-11.523	
167.800	7.529	
167.900	-16.340	
168.000	-2.499	
168.100	-10.352	
168.200	-1.776	
168.300	-14.751	
168.400	4.766	
168.500	-9.786	
168.600	-19.496	
168.700	-12.582	
168.800	-20.087	
168.900	-10.960	
169.000	3.096	
169.100	-4.196	
169.200	-14.205	
169.300	-10.564	
169.400	-4.890	
169.500	5.314	
169.600	-0.084	
169.700	-18.778	
169.800	-4.257	
169.900	-29.072	
170.000	-15.270	
170.100	-23.804	
170.200	-12.605	
170.300	-5.673	
170.400	-16.194	
170.500	-15.966	
170.600	1.175	
170.700	7.498	
170.800	1.269	
170.900	-32.148	
171.000	-28.185	
171.100	12.733	
171.200	-21.629	
171.300	-9.733	
171.400	0.185	
171.500	-21.469	
171.600	-26.014	
171.700	-16.119	
171.800	-4.250	
171.900	-11.433	
172.000	10.987	
172.100	-25.967	
172.200	-23.262	
172.300	-19.130	
172.400	-32.494	
172.500	-6.012	
172.600	-10.674	
172.700	-24.006	
172.800	-21.574	
172.900	-18.269	
173.000	-0.513	
173.100	2.050	
173.200	-10.275	
173.300	-39.977	
173.400	-6.454	
173.500	-12.820	
173.600	-5.279	
173.700	-6.770	
173.800	-23.096	
173.900	-29.568	
174.000	-0.390	
174.100	-11.448	
174.200	-21.016	
174.300	-6.812	
174.400	-13.104	
174.500	-23.942	
174.600	-28.399	
174.700	-6.583	
174.800	-3.470	
174.900	-10.589	
175.000	5.847	
175.100	-8.796	
175.200	-14.571	
175.300	-7.185	
175.400	9.679	
175.500	-23.495	
175.600	-31.119	
175.700	-21.548	
175.800	-18.639	
175.900	1.320	
176.000	-9.814	
176.100	-18.158	
176.200	-15.029	
176.300	-17.591	
176.400	-4.579	
176.500	-19.671	
176.600	-7.631	
176.700	-25.082	
176.800	-12.854	
176.900	-10.754	
177.000	-5.538	
177.100	-4.391	
177.200	-21.407	
177.300	-21.732	
177.400	-18.503	
177.500	-16.723	
177.600	0.570	
177.700	-4.395	
177.800	-17.164	
177.900	-23.614	
178.000	-24.964	
178.100	1.709	
178.200	-6.114	
178.300	-3.858	
178.400	-23.910	
178.500	-5.332	
178.600	-25.789	
178.700	-8.963	
178.800	-10.196	
178.900	-13.262	
179.000	-9.242	
179.100	-17.291	
179.200	-18.599	
179.300	3.246	
179.400	-1.940	
179.500	-10.865	
179.600	3.383	
179.700	-9.898	
179.800	-17.286	
179.900	-10.502	
180.000	-16.361	
180.100	9.807	
180.200	7.332	
180.300	-12.213	
180.400	-27.689	
180.500	2.606	
180.600	30.843	
180.700	3.445	
180.800	20.586	
180.900	-30.645	
181.000	5.848	
181.100	19.521	
181.200	39.802	
181.300	5.063	
181.400	27.982	
181.500	30.367	
181.600	25.964	
181.700	12.794	
181.800	11.087	
181.900	25.821	
182.000	12.357	
182.100	32.771	
182.200	20.477	
182.300	23.950	
182.400	22.541	
182.500	19.846	
182.600	13.165	
182.700	14.741	
182.800	23.385	
182.900	13.489	
183.000	14.294	
183.100	21.764	
183.200	22.369	
183.300	26.132	
183.400	27.770	
183.500	33.846	
183.600	28.494	
183.700	37.696	
183.800	16.775	
183.900	23.080	
184.000	21.255	
184.100	18.023	
184.200	13.832	
184.300	18.660	
184.400	9.194	
184.500	18.509	
184.600	22.215	
184.700	41.913	
184.800	38.523	
184.900	21.589	
185.000	18.111	
185.100	35.783	
185.200	26.815	
185.300	45.575	
185.400	13.881	
185.500	39.033	
185.600	10.307	
185.700	-2.761	
185.800	48.296	
185.900	35.816	
186.000	17.645	
186.100	18.319	
186.200	28.622	
186.300	19.071	
186.400	23.103	
186.500	40.949	
186.600	31.317	
186.700	8.204	
186.800	17.669	
186.900	21.695	
187.000	48.811	
187.100	44.551	
187.200	25.491	
187.300	19.342	
187.400	25.524	
187.500	16.513	
187.600	43.856	
187.700	37.697	
187.800	16.539	
187.900	25.691	
188.000	26.250	
188.100	32.415	
188.200	41.841	
188.300	36.128	
188.400	37.200	
188.500	35.881	
188.600	44.217	
188.700	30.030	
188.800	26.252	
188.900	38.890	
189.000	15.959	
189.100	19.136	
189.200	30.875	
189.300	25.438	
189.400	44.542	
189.500	32.268	
189.600	48.183	
189.700	35.775	
189.800	32.120	
189.900	24.801	
190.000	42.557	
190.100	30.793	
190.200	32.254	
190.300	31.496	
190.400	34.577	
190.500	42.116	
190.600	61.397	
190.700	31.351	
190.800	21.153	
190.900	30.628	
191.000	38.083	
191.100	33.152	
191.200	50.401	
191.300	35.529	
191.400	24.522	
191.500	39.011	
191.600	32.330	
191.700	43.086	
191.800	46.509	
191.900	27.940	
192.000	37.782	
192.100	32.424	
192.200	54.240	
192.300	37.204	
192.400	22.753	
192.500	44.906	
192.600	36.846	
192.700	46.089	
192.800	41.668	
192.900	43.744	
193.000	47.384	
193.100	43.403	
193.200	41.554	
193.300	43.738	
193.400	44.055	
193.500	51.399	
193.600	28.352	
193.700	37.511	
193.800	51.989	
193.900	57.441	
194.000	52.081	
194.100	48.932	
194.200	31.459	
194.300	41.022	
194.400	35.335	
194.500	43.767	
194.600	62.646	
194.700	65.539	
194.800	38.516	
194.900	33.078	
195.000	27.314	
195.100	43.191	
195.200	33.401	
195.300	64.239	
195.400	59.892	
195.500	34.989	
195.600	25.143	
195.700	45.446	
195.800	65.787	
195.900	38.831	
196.000	34.504	
196.100	67.049	
196.200	23.754	
196.300	38.160	
196.400	54.424	
196.500	59.072	
196.600	33.002	
196.700	47.828	
196.800	25.405	
196.900	57.025	
197.000	52.894	
197.100	53.809	
197.200	61.468	
197.300	45.138	
197.400	33.979	
197.500	44.056	
197.600	63.672	
197.700	45.237	
197.800	31.830	
197.900	45.179	
198.000	51.880	
198.100	64.691	
198.200	55.582	
198.300	49.935	
198.400	36.856	
198.500	33.287	
198.600	50.083	
198.700	52.785	
198.800	29.013	
198.900	21.107	
199.000	53.929	
199.100	44.294	
199.200	51.894	
199.300	55.527	
199.400	28.114	
199.500	46.302	
199.600	31.227	
199.700	53.934	
199.800	50.146	
199.900	56.978	
200.000	50.701	
200.100	37.976	
200.200	35.963	
200.300	33.429	
200.400	54.618	
200.500	36.979	
200.600	37.167	
200.700	49.027	
200.800	67.939	
200.900	38.882	
201.000	45.969	
201.100	49.285	
201.200	43.999	
201.300	55.637	
201.400	51.175	
201.500	53.493	
201.600	56.308	
201.700	51.274	
201.800	49.607	
201.900	59.186	
202.000	34.662	
202.100	60.687	
202.200	32.790	
202.300	49.055	
202.400	57.792	
202.500	39.569	
202.600	40.852	
202.700	35.475	
202.800	49.213	
202.900	52.704	
203.000	40.346	
203.100	38.055	
203.200	32.325	
203.300	78.411	
203.400	57.019	
203.500	47.378	
203.600	53.649	
203.700	50.671	
203.800	48.119	
203.900	68.281	
204.000	51.938	
204.100	67.874	
204.200	25.521	
204.300	44.230	
204.400	34.123	
204.500	55.327	
204.600	55.901	
204.700	49.061	
204.800	32.395	
204.900	48.591	
205.000	63.182	
205.100	52.140	
205.200	63.394	
205.300	38.681	
205.400	30.499	
205.500	41.767	
205.600	52.159	
205.700	50.617	
205.800	67.699	
205.900	22.126	
206.000	23.704	
206.100	48.097	
206.200	51.819	
206.300	60.318	
206.400	71.222	
206.500	51.850	
206.600	48.365	
206.700	37.865	
206.800	56.379	
206.900	29.106	
207.000	77.709	
207.100	39.607	
207.200	47.855	
207.300	51.741	
207.400	57.300	
207.500	49.909	
207.600	38.054	
207.700	42.437	
207.800	49.747	
207.900	31.398	
208.000	53.310	
208.100	66.421	
208.200	62.221	
208.300	58.017	
208.400	37.273	
208.500	57.411	
208.600	51.206	
208.700	68.833	
208.800	49.635	
208.900	45.107	
209.000	52.006	
209.100	24.697	
209.200	64.305	
209.300	59.104	
209.400	48.179	
209.500	47.606	
209.600	43.547	
209.700	35.185	
209.800	42.065	
209.900	61.285	
210.000	60.424	
210.100	63.691	
210.200	23.896	
210.300	38.048	
210.400	61.223	
210.500	52.756	
210.600	40.866	
210.700	55.241	
210.800	69.119	
210.900	35.189	
211.000	58.110	
211.100	40.825	
211.200	43.274	
211.300	42.435	
211.400	49.737	
211.500	78.883	
211.600	54.554	
211.700	41.859	
211.800	46.967	
211.900	35.286	
212.000	56.060	
212.100	59.563	
212.200	59.975	
212.300	49.648	
212.400	48.102	
212.500	51.085	
212.600	56.585	
212.700	44.586	
212.800	45.062	
212.900	50.863	
213.000	47.298	
213.100	37.709	
213.200	40.041	
213.300	83.217	
213.400	46.810	
213.500	40.186	
213.600	45.638	
213.700	47.940	
213.800	38.783	
213.900	54.741	
214.000	75.672	
214.100	62.883	
214.200	45.453	
214.300	38.888	
214.400	49.375	
214.500	66.887	
214.600	56.129	
214.700	39.565	
214.800	58.197	
214.900	43.725	
215.000	60.460	
215.100	61.845	
215.200	58.357	
215.300	18.680	
215.400	32.256	
215.500	77.238	
215.600	46.356	
215.700	47.444	
215.800	37.966	
215.900	30.946	
216.000	38.529	
216.100	43.108	
216.200	55.139	
216.300	51.740	
216.400	63.552	
216.500	43.624	
216.600	40.796	
216.700	36.237	
216.800	56.373	
216.900	50.780	
217.000	50.721	
217.100	56.789	
217.200	35.739	
217.300	44.384	
217.400	57.329	
217.500	55.008	
217.600	44.528	
217.700	49.762	
217.800	41.157	
217.900	28.139	
218.000	43.537	
218.100	47.734	
218.200	62.030	
218.300	39.609	
218.400	27.882	
218.500	57.081	
218.600	68.933	
218.700	55.548	
218.800	47.955	
218.900	32.907	
219.000	48.420	
219.100	58.333	
219.200	70.278	
219.300	40.259	
219.400	58.307	
219.500	43.693	
219.600	43.792	
219.700	57.257	
219.800	54.387	
219.900	59.278	
220.000	39.724	
220.100	27.173	
220.200	26.067	
220.300	58.520	
220.400	57.355	
220.500	44.242	
220.600	52.642	
220.700	59.629	
220.800	46.095	
220.900	55.766	
221.000	76.016	
221.100	46.500	
221.200	53.222	
221.300	42.015	
221.400	49.829	
221.500	51.174	
221.600	46.813	
221.700	42.913	
221.800	21.323	
221.900	51.557	
222.000	55.695	
222.100	46.481	
222.200	68.890	
222.300	49.904	
222.400	39.645	
222.500	41.258	
222.600	63.142	
222.700	44.148	
222.800	51.030	
222.900	45.691	
223.000	52.720	
223.100	54.765	
223.200	36.381	
223.300	76.162	
223.400	39.554	
223.500	32.107	
223.600	51.873	
223.700	42.498	
223.800	70.244	
223.900	39.508	
224.000	47.915	
224.100	50.943	
224.200	35.185	
224.300	33.930	
224.400	58.445	
224.500	59.089	
224.600	36.954	
224.700	59.231	
224.800	37.746	
224.900	40.876	
225.000	56.444	
225.100	58.185	
225.200	63.046	
225.300	40.664	
225.400	40.014	
225.500	55.087	
225.600	51.920	
225.700	57.967	
225.800	20.826	
225.900	64.415	
226.000	32.573	
226.100	58.633	
226.200	53.424	
226.300	36.704	
226.400	42.203	
226.500	39.418	
226.600	42.879	
226.700	61.250	
226.800	59.322	
226.900	42.039	
227.000	37.339	
227.100	39.053	
227.200	40.206	
227.300	34.590	
227.400	55.174	
227.500	51.580	
227.600	47.188	
227.700	34.460	
227.800	51.602	
227.900	49.415	
228.000	25.571	
228.100	41.138	
228.200	42.923	
228.300	63.812	
228.400	43.968	
228.500	57.891	
228.600	51.583	
228.700	30.200	
228.800	49.887	
228.900	52.113	
229.000	42.655	
229.100	52.945	
229.200	57.569	
229.300	32.203	
229.400	49.864	
229.500	23.707	
229.600	44.237	
229.700	43.792	
229.800	52.737	
229.900	35.938	
230.000	38.665	
230.100	45.338	
230.200	40.205	
230.300	41.957	
230.400	27.971	
230.500	46.864	
230.600	14.726	
230.700	55.966	
230.800	60.666	
230.900	51.984	
231.000	45.429	
231.100	44.599	
231.200	44.341	
231.300	39.386	
231.400	48.760	
231.500	35.077	
231.600	37.356	
231.700	52.205	
231.800	39.880	
231.900	46.920	
232.000	48.261	
232.100	39.675	
232.200	42.769	
232.300	35.314	
232.400	41.896	
232.500	48.556	
232.600	46.131	
232.700	49.146	
232.800	65.103	
232.900	18.738	
233.000	41.585	
233.100	48.283	
233.200	47.493	
233.300	47.167	
233.400	37.557	
233.500	31.091	
233.600	41.019	
233.700	43.279	
233.800	49.661	
233.900	17.411	
234.000	52.369	
234.100	22.290	
234.200	38.104	
234.300	48.439	
234.400	47.169	
234.500	50.344	
234.600	50.894	
234.700	28.821	
234.800	26.282	
234.900	41.433	
235.000	75.739	
235.100	46.260	
235.200	17.348	
235.300	44.370	
235.400	43.280	
235.500	57.872	
235.600	44.299	
235.700	24.186	
235.800	36.362	
235.900	50.269	
236.000	39.566	
236.100	48.172	
236.200	54.454	
236.300	28.240	
236.400	56.718	
236.500	54.688	
236.600	60.077	
236.700	57.598	
236.800	44.670	
236.900	31.524	
237.000	51.555	
237.100	29.823	
237.200	46.977	
237.300	32.531	
237.400	34.654	
237.500	39.647	
237.600	46.404	
237.700	30.611	
237.800	39.537	
237.900	40.703	
238.000	47.233	
238.100	34.028	
238.200	61.170	
238.300	39.458	
238.400	40.241	
238.500	49.116	
238.600	48.025	
238.700	53.191	
238.800	44.197	
238.900	40.550	
239.000	40.434	
239.100	37.866	
239.200	26.552	
239.300	36.126	
239.400	45.441	
239.500	33.792	
239.600	27.321	
239.700	66.985	
239.800	53.409	
239.900	35.682	
240.000	25.602	
240.100	51.868	
240.200	38.344	
240.300	22.814	
240.400	27.108	
240.500	23.264	
240.600	22.076	
240.700	44.751	
240.800	20.061	
240.900	20.229	
241.000	41.817	
241.100	8.988	
241.200	10.479	
241.300	14.461	
241.400	18.140	
241.500	12.761	
241.600	13.278	
241.700	7.509	
241.800	13.670	
241.900	23.710	
242.000	34.526	
242.100	18.123	
242.200	14.810	
242.300	-2.165	
242.400	-8.126	
242.500	40.251	
242.600	-1.967	
242.700	20.040	
242.800	-6.946	
242.900	0.326	
243.000	12.369	
243.100	17.268	
243.200	12.398	
243.300	0.548	
243.400	4.930	
243.500	12.592	
243.600	12.297	
243.700	35.285	
243.800	-5.740	
243.900	-6.231	
244.000	-0.227	
244.100	23.341	
244.200	-0.253	
244.300	21.935	
244.400	4.816	
244.500	-4.921	
244.600	-18.549	
244.700	2.494	
244.800	12.083	
244.900	6.795	
245.000	16.748	
245.100	-3.283	
245.200	-10.905	
245.300	0.573	
245.400	-2.729	
245.500	11.651	
245.600	17.760	
245.700	2.504	
245.800	-18.771	
245.900	-19.963	
246.000	7.938	
246.100	19.944	
246.200	6.863	
246.300	-0.472	
246.400	-8.053	
246.500	14.263	
246.600	6.124	
246.700	-1.953	
246.800	-0.880	
246.900	-12.675	
247.000	8.373	
247.100	-1.321	
247.200	8.023	
247.300	20.882	
247.400	-23.188	
247.500	10.616	
247.600	-5.587	
247.700	-5.216	
247.800	-1.484	
247.900	-19.412	
248.000	2.490	
248.100	-7.562	
248.200	3.946	
248.300	-9.537	
248.400	30.945	
248.500	3.435	
248.600	-16.010	
248.700	-6.166	
248.800	-37.635	
248.900	-4.500	
249.000	11.801	
249.100	7.878	
249.200	-28.389	
249.300	-14.993	
249.400	1.760	
249.500	9.440	
249.600	-1.953	
249.700	-5.363	
249.800	-12.760	
249.900	-13.167	
250.000	-4.097	
250.100	9.380	
250.200	-16.676	
250.300	-29.946	
250.400	-27.593	
250.500	-28.892	
250.600	3.389	
250.700	4.785	
250.800	-14.928	
250.900	-31.453	
251.000	-14.588	
251.100	-8.069	
251.200	-9.751	
251.300	-11.043	
251.400	-6.476	
251.500	-16.023	
251.600	-14.251	
251.700	-21.071	
251.800	-8.620	
251.900	-16.120	
252.000	-16.748	
252.100	0.552	
252.200	-27.882	
252.300	-1.452	
252.400	-12.841	
252.500	-19.625	
252.600	-10.103	
252.700	-22.981	
252.800	-24.682	
252.900	-20.300	
253.000	12.504	
253.100	-6.304	
253.200	-12.474	
253.300	-5.454	
253.400	-34.191	
253.500	-20.843	
253.600	-12.856	
253.700	-30.469	
253.800	1.311	
253.900	-31.636	
254.000	-7.676	
254.100	-7.514	
254.200	-6.167	
254.300	-0.488	
254.400	-23.566	
254.500	-13.546	
254.600	-31.834	
254.700	-17.909	
254.800	-22.968	
254.900	-15.655	
255.000	-30.606	
255.100	-17.608	
255.200	-26.192	
255.300	-16.798	
255.400	-9.770	
255.500	-24.798	
255.600	-5.237	
255.700	-23.970	
255.800	-24.170	
255.900	-25.902	
256.000	-13.801	
256.100	-24.672	
256.200	-19.590	
256.300	-26.222	
256.400	-29.275	
256.500	-7.890	
256.600	-12.996	
256.700	-41.722	
256.800	-25.055	
256.900	-19.375	
257.000	-10.527	
257.100	-0.294	
257.200	-5.758	
257.300	-3.994	
257.400	-59.219	
257.500	-25.893	
257.600	-14.966	
257.700	-19.220	
257.800	-22.936	
257.900	-19.576	
258.000	-29.926	
258.100	-40.416	
258.200	-24.966	
258.300	-18.002	
258.400	-3.907	
258.500	-24.115	
258.600	-24.321	
258.700	-29.914	
258.800	-43.832	
258.900	-7.142	
259.000	-0.175	
259.100	-16.269	
259.200	-11.863	
259.300	-19.131	
259.400	-20.687	
259.500	-24.634	
259.600	-26.711	
259.700	-9.124	
259.800	-27.114	
259.900	-16.429	
260.000	-13.183	
260.100	-11.129	
260.200	-41.003	
260.300	-27.052	
260.400	-41.932	
260.500	-22.928	
260.600	-27.041	
260.700	-1.474	
260.800	-21.012	
260.900	-22.167	
261.000	-30.444	
261.100	-15.002	
261.200	2.055	
261.300	-17.723	
261.400	-18.455	
261.500	-11.190	
261.600	-39.196	
261.700	-36.067	
261.800	-11.578	
261.900	-15.443	
262.000	-28.013	
262.100	-30.163	
262.200	-9.403	
262.300	-10.877	
262.400	-13.348	
262.500	-45.459	
262.600	-9.042	
262.700	-30.195	
262.800	-29.500	
262.900	-34.637	
263.000	-19.036	
263.100	-34.361	
263.200	-27.431	
263.300	-11.267	
263.400	-22.459	
263.500	-34.458	
263.600	-19.943	
263.700	-25.002	
263.800	-14.929	
263.900	-26.346	
264.000	-27.874	
264.100	-20.157	
264.200	-35.624	
264.300	-23.130	
264.400	-18.001	
264.500	-29.163	
264.600	-18.536	
264.700	-20.494	
264.800	-24.978	
264.900	-13.545	
265.000	-22.016	
265.100	-24.238	
265.200	-13.382	
265.300	-20.736	
265.400	1.479	
265.500	-19.244	
265.600	-38.434	
265.700	-29.690	
265.800	-15.690	
265.900	-36.736	
266.000	-14.799	
266.100	-22.374	
266.200	-39.489	
266.300	-10.477	
266.400	-21.599	
266.500	-9.204	
266.600	-14.830	
266.700	-23.163	
266.800	-29.130	
266.900	-25.280	
267.000	-27.722	
267.100	-22.562	
267.200	-8.374	
267.300	-24.066	
267.400	-19.524	
267.500	-12.748	
267.600	-29.576	
267.700	-23.059	
267.800	-10.744	
267.900	-37.618	
268.000	-20.163	
268.100	-8.468	
268.200	-11.750	
268.300	-12.980	
268.400	-28.565	
268.500	-27.996	
268.600	-44.413	
268.700	-26.809	
268.800	-7.189	
268.900	-9.399	
269.000	-36.121	
269.100	-39.055	
269.200	-10.922	
269.300	-5.119	
269.400	-35.249	
269.500	-20.214	
269.600	-35.655	
269.700	-32.372	
269.800	-55.686	
269.900	-33.722	
270.000	-9.785	
270.100	-29.711	
270.200	-37.384	
270.300	-15.790	
270.400	-33.382	
270.500	-15.676	
270.600	-29.502	
270.700	-26.204	
270.800	-29.256	
270.900	-23.012	
271.000	-32.834	
271.100	-1.960	
271.200	-40.549	
271.300	-38.161	
271.400	-16.964	
271.500	-49.136	
271.600	-12.607	
271.700	-8.111	
271.800	-27.971	
271.900	-34.911	
272.000	-31.216	
272.100	-13.750	
272.200	-18.438	
272.300	-12.128	
272.400	-26.579	
272.500	-22.104	
272.600	-32.235	
272.700	-17.361	
272.800	-22.275	
272.900	-27.903	
273.000	-5.456	
273.100	-28.964	
273.200	-32.241	
273.300	-39.404	
273.400	-15.845	
273.500	-22.148	
273.600	-24.861	
273.700	-22.051	
273.800	-27.447	
273.900	-24.169	
274.000	-25.687	
274.100	-17.889	
274.200	-20.691	
274.300	-23.041	
274.400	-29.082	
274.500	-40.500	
274.600	-14.581	
274.700	-2.180	
274.800	6.946	
274.900	-35.282	
275.000	-39.965	
275.100	-0.806	
275.200	-24.896	
275.300	-24.222	
275.400	-20.118	
275.500	-20.945	
275.600	-37.030	
275.700	-48.099	
275.800	-10.890	
275.900	-15.273	
276.000	-28.080	
276.100	-31.638	
276.200	-53.855	
276.300	-25.333	
276.400	-16.049	
276.500	-7.527	
276.600	-15.746	
276.700	-22.303	
276.800	-36.745	
276.900	-30.155	
277.000	2.482	
277.100	-24.588	
277.200	-29.464	
277.300	-41.441	
277.400	-23.304	
277.500	-25.158	
277.600	-13.254	
277.700	-25.766	
277.800	-38.739	
277.900	-26.582	
278.000	-7.928	
278.100	-34.989	
278.200	-50.746	
278.300	5.297	
278.400	-10.009	
278.500	-23.049	
278.600	-17.529	
278.700	-18.300	
278.800	-29.494	
278.900	-33.544	
279.000	-30.908	
279.100	-37.175	
279.200	-28.990	
279.300	-24.626	
279.400	-4.441	
279.500	-20.014	
279.600	-16.729	
279.700	-30.080	
279.800	-13.942	
279.900	-21.519	
280.000	-14.543	
280.100	-31.702	
280.200	-28.807	
280.300	-7.206	
280.400	-9.229	
280.500	-33.090	
280.600	-19.537	
280.700	-28.658	
280.800	-46.318	
280.900	-25.371	
281.000	-16.120	
281.100	-7.388	
281.200	-25.987	
281.300	-39.654	
281.400	-24.818	
281.500	-22.582	
281.600	-24.403	
281.700	-12.832	
281.800	-33.243	
281.900	-22.102	
282.000	-28.737	
282.100	-23.720	
282.200	-28.770	
282.300	-10.316	
282.400	-10.456	
282.500	-20.842	
282.600	-41.404	
282.700	-29.385	
282.800	-25.030	
282.900	-28.716	
283.000	-35.464	
283.100	-38.340	
283.200	-11.723	
283.300	-22.196	
283.400	-23.765	
283.500	-9.977	
283.600	-3.167	
283.700	-27.811	
283.800	-43.398	
283.900	-41.722	
284.000	-13.305	
284.100	-9.489	
284.200	-39.442	
284.300	-40.529	
284.400	-23.573	
284.500	-12.457	
284.600	-18.148	
284.700	-26.086	
284.800	-29.142	
284.900	-44.210	
285.000	-9.695	
285.100	-34.823	
285.200	-16.702	
285.300	-28.068	
285.400	-41.122	
285.500	-14.239	
285.600	-29.891	
285.700	-10.801	
285.800	-11.228	
285.900	-28.370	
286.000	-42.287	
286.100	-26.832	
286.200	-36.302	
286.300	-14.455	
286.400	-21.243	
286.500	-28.189	
286.600	-56.068	
286.700	-35.248	
286.800	-31.185	
286.900	-4.216	
287.000	16.837	
287.100	-15.360	
287.200	-19.314	
287.300	-29.773	
287.400	-33.266	
287.500	-19.921	
287.600	-30.017	
287.700	-21.379	
287.800	-8.407	
287.900	-52.810	
288.000	-46.913	
288.100	-22.547	
288.200	-0.373	
288.300	-11.797	
288.400	-28.511	
288.500	-17.626	
288.600	-25.813	
288.700	-45.452	
288.800	-43.101	
288.900	-21.350	
289.000	-25.135	
289.100	-31.823	
289.200	-17.178	
289.300	-29.751	
289.400	-12.884	
289.500	-27.916	
289.600	-26.392	
289.700	-29.359	
289.800	-4.976	
289.900	-7.283	
290.000	-28.738	
290.100	-28.763	
290.200	-13.361	
290.300	2.015	
290.400	-28.384	
290.500	-27.889	
290.600	-6.423	
290.700	-22.685	
290.800	-9.599	
290.900	-22.118	
291.000	-15.694	
291.100	-22.506	
291.200	-12.297	
291.300	-34.509	
291.400	-42.434	
291.500	-16.831	
291.600	-25.331	
291.700	-1.190	
291.800	-11.720	
291.900	-31.669	
292.000	-47.429	
292.100	-14.931	
292.200	-28.126	
292.300	-8.762	
292.400	-33.041	
292.500	-24.567	
292.600	-38.945	
292.700	-16.818	
292.800	-15.840	
292.900	-13.674	
293.000	-36.934	
293.100	-26.766	
293.200	-8.971	
293.300	-3.995	
293.400	-22.299	
293.500	-19.725	
293.600	-25.619	
293.700	-37.047	
293.800	-21.387	
293.900	-16.653	
294.000	-18.783	
294.100	-27.582	
294.200	-38.161	
294.300	-26.489	
294.400	-8.485	
294.500	-2.487	
294.600	-33.014	
294.700	-35.152	
294.800	-32.593	
294.900	-34.225	
295.000	-37.682	
295.100	-13.196	
295.200	-31.407	
295.300	-9.814	
295.400	-24.395	
295.500	-13.711	
295.600	-33.915	
295.700	-9.770	
295.800	-9.940	
295.900	-38.024	
296.000	-24.844	
296.100	-43.052	
296.200	-17.920	
296.300	-12.242	
296.400	-1.486	
296.500	-12.633	
296.600	-26.416	
296.700	-22.323	
296.800	-29.960	
296.900	-10.472	
297.000	-15.954	
297.100	-5.905	
297.200	-32.356	
297.300	-31.142	
297.400	-13.816	
297.500	-19.350	
297.600	-19.457	
297.700	-15.099	
297.800	-32.096	
297.900	-13.128	
298.000	-7.878	
298.100	-2.528	
298.200	-29.689	
298.300	-20.353	
298.400	-30.767	
298.500	-36.020	
298.600	-14.406	
298.700	-26.008	
298.800	-14.979	
298.900	-24.757	
299.000	-16.983	
299.100	-27.847	
299.200	-30.372	
299.300	-4.490	
299.400	-21.438	
299.500	-15.358	
299.600	-36.586	
299.700	-13.608	
299.800	-20.727	
299.900	-30.039	
300.000	-29.514	
300.100	-36.012	
300.200	-6.900	
300.300	-22.050	
300.400	-10.712	
300.500	-8.096	
300.600	-21.548	
300.700	-41.590	
300.800	-23.637	
300.900	-12.463	
301.000	-22.814	
301.100	-30.988	
301.200	-33.619	
301.300	-42.834	
301.400	-8.939	
301.500	-14.112	
301.600	-26.923	
301.700	-34.007	
301.800	-47.431	
301.900	-31.353	
302.000	-36.571	
302.100	-24.122	
302.200	-17.601	
302.300	-39.375	
302.400	-8.220	
302.500	-36.365	
302.600	-23.747	
302.700	-8.152	
302.800	-21.185	
302.900	-12.520	
303.000	-21.589	
303.100	-21.348	
303.200	-3.238	
303.300	-31.229	
303.400	-8.194	
303.500	-28.521	
303.600	-47.870	
303.700	-13.819	
303.800	-21.370	
303.900	-26.129	
304.000	-21.196	
304.100	-22.883	
304.200	-29.241	
304.300	-22.229	
304.400	-19.729	
304.500	-18.625	
304.600	4.101	
304.700	-27.718	
304.800	-9.750	
304.900	-40.206	
305.000	-14.393	
305.100	-22.080	
305.200	-42.200	
305.300	-18.850	
305.400	-13.004	
305.500	-19.983	
305.600	-7.062	
305.700	-20.678	
305.800	-12.228	
305.900	-31.899	
306.000	-28.096	
306.100	-14.938	
306.200	-6.962	
306.300	-16.697	
306.400	-38.074	
306.500	-3.481	
306.600	-30.025	
306.700	-23.935	
306.800	-27.722	
306.900	-5.243	
307.000	-9.321	
307.100	-28.171	
307.200	-15.045	
307.300	-14.722	
307.400	-15.159	
307.500	-22.433	
307.600	-17.139	
307.700	-35.802	
307.800	-22.124	
307.900	-5.203	
308.000	-18.886	
308.100	-8.948	
308.200	-3.028	
308.300	2.032	
308.400	-23.805	
308.500	-25.018	
308.600	-8.816	
308.700	-17.841	
308.800	-42.774	
308.900	-14.294	
309.000	-8.295	
309.100	-28.950	
309.200	-20.972	
309.300	8.677	
309.400	-32.549	
309.500	-27.705	
309.600	-31.052	
309.700	-12.387	
309.800	1.738	
309.900	-21.815	
310.000	-9.609	
310.100	-20.187	
310.200	-21.508	
310.300	-21.496	
310.400	-1.855	
310.500	-5.929	
310.600	-48.284	
310.700	-7.487	
310.800	-18.707	
310.900	-22.022	
311.000	-32.792	
311.100	3.198	
311.200	-0.224	
311.300	-16.429	
311.400	-10.598	
311.500	-6.792	
311.600	-12.737	
311.700	-26.653	
311.800	-19.283	
311.900	-7.549	
312.000	-16.812	
312.100	-14.850	
312.200	-24.365	
312.300	-29.776	
312.400	-12.152	
312.500	-22.727	
312.600	12.821	
312.700	-10.693	
312.800	-5.666	
312.900	-10.255	
313.000	-34.079	
313.100	-22.236	
313.200	-16.419	
313.300	-16.368	
313.400	1.039	
313.500	-16.251	
313.600	-17.295	
313.700	-31.579	
313.800	-8.099	
313.900	-12.614	
314.000	-8.224	
314.100	-19.586	
314.200	-22.040	
314.300	-22.616	
314.400	-31.614	
314.500	-1.090	
314.600	-4.656	
314.700	-34.200	
314.800	-25.505	
314.900	-15.585	
315.000	-3.695	
315.100	-4.728	
315.200	-16.640	
315.300	-13.627	
315.400	-21.185	
315.500	-10.414	
315.600	-23.953	
315.700	-16.590	
315.800	-24.486	
315.900	-36.794	
316.000	-9.726	
316.100	-9.321	
316.200	-9.114	
316.300	-4.000	
316.400	-42.341	
316.500	-19.040	
316.600	-18.922	
316.700	-8.504	
316.800	1.107	
316.900	-30.017	
317.000	-13.746	
317.100	-16.870	
317.200	-16.156	
317.300	-28.574	
317.400	6.209	
317.500	-20.365	
317.600	-3.923	
317.700	-43.965	
317.800	-17.874	
317.900	-12.798	
318.000	-21.441	
318.100	-26.806	
318.200	-22.510	
318.300	-18.278	
318.400	-33.460	
318.500	-6.743	
318.600	10.949	
318.700	-29.575	
318.800	-11.689	
318.900	-34.625	
319.000	-12.111	
319.100	-10.777	
319.200	-5.280	
319.300	-24.077	
319.400	-21.898	
319.500	-36.536	
319.600	-14.968	
319.700	-2.767	
319.800	-1.317	
319.900	-21.853	
320.000	-16.470	
320.100	-21.248	
320.200	-10.258	
320.300	8.288	
320.400	-24.036	
320.500	-26.535	
320.600	-29.744	
320.700	-11.726	
320.800	-2.322	
320.900	-28.960	
321.000	-5.190	
321.100	-18.797	
321.200	-27.661	
321.300	-13.836	
321.400	-31.472	
321.500	5.895	
321.600	-19.144	
321.700	-13.837	
321.800	-34.513	
321.900	-26.468	
322.000	-10.767	
322.100	-2.702	
322.200	-21.611	
322.300	-23.723	
322.400	-38.690	
322.500	-10.261	
322.600	6.710	
322.700	2.770	
322.800	-10.354	
322.900	-13.295	
323.000	-28.899	
323.100	-26.006	
323.200	4.908	
323.300	1.847	
323.400	-14.256	
323.500	-34.917	
323.600	-41.930	
323.700	-5.506	
323.800	7.314	
323.900	5.302	
324.000	-20.687	
324.100	-15.769	
324.200	-22.095	
324.300	-11.809	
324.400	-1.734	
324.500	-17.608	
324.600	-25.176	
324.700	-22.960	
324.800	8.400	
324.900	-35.309	
325.000	11.415	
325.100	-15.575	
325.200	-22.803	
325.300	-12.081	
325.400	-18.206	
325.500	-8.824	
325.600	-22.407	
325.700	-6.374	
325.800	-28.148	
325.900	-10.379	
326.000	-22.667	
326.100	0.740	
326.200	-15.021	
326.300	-28.793	
326.400	-28.424	
326.500	-31.491	
326.600	2.765	
326.700	-1.999	
326.800	0.951	
326.900	-28.078	
327.000	-6.418	
327.100	-16.466	
327.200	-18.312	
327.300	-20.425	
327.400	-8.730	
327.500	-4.923	
327.600	-6.245	
327.700	-7.316	
327.800	-23.910	
327.900	-9.395	
328.000	-8.793	
328.100	-14.021	
328.200	-22.505	
328.300	-4.848	
328.400	-13.630	
328.500	6.815	
328.600	-8.260	
328.700	-45.923	
328.800	-15.624	
328.900	-25.506	
329.000	-32.886	
329.100	-7.981	
329.200	-29.656	
329.300	-31.045	
329.400	-22.837	
329.500	-4.941	
329.600	-9.140	
329.700	-5.524	
329.800	-30.344	
329.900	-20.275	
330.000	-1.572	
330.100	-0.118	
330.200	-13.986	
330.300	-17.458	
330.400	-13.543	
330.500	11.058	
330.600	0.415	
330.700	6.255	
330.800	15.344	
330.900	-1.786	
331.000	9.732	
331.100	6.055	
331.200	0.732	
331.300	10.788	
331.400	29.884	
331.500	15.099	
331.600	-7.618	
331.700	4.875	
331.800	7.486	
331.900	24.590	
332.000	25.981	
332.100	34.373	
332.200	2.819	
332.300	9.502	
332.400	6.554	
332.500	17.771	
332.600	43.438	
332.700	15.763	
332.800	-11.425	
332.900	14.190	
333.000	12.230	
333.100	49.611	
333.200	27.484	
333.300	9.179	
333.400	2.044	
333.500	47.051	
333.600	34.057	
333.700	7.818	
333.800	21.914	
333.900	14.130	
334.000	2.971	
334.100	24.820	
334.200	21.082	
334.300	43.750	
334.400	31.465	
334.500	25.698	
334.600	5.529	
334.700	22.793	
334.800	28.670	
334.900	-0.971	
335.000	39.349	
335.100	20.013	
335.200	17.741	
335.300	23.619	
335.400	14.473	
335.500	43.809	
335.600	16.697	
335.700	10.133	
335.800	22.171	
335.900	12.104	
336.000	43.175	
336.100	38.135	
336.200	11.039	
336.300	20.559	
336.400	-11.645	
336.500	21.393	
336.600	33.996	
336.700	38.568	
336.800	36.528	
336.900	20.189	
337.000	41.323	
337.100	20.272	
337.200	28.874	
337.300	43.209	
337.400	31.798	
337.500	34.889	
337.600	19.914	
337.700	25.661	
337.800	15.054	
337.900	45.037	
338.000	26.012	
338.100	22.321	
338.200	18.478	
338.300	45.516	
338.400	46.030	
338.500	30.375	
338.600	28.449	
338.700	32.543	
338.800	37.079	
338.900	29.918	
339.000	25.006	
339.100	28.362	
339.200	35.975	
339.300	28.723	
339.400	49.279	
339.500	35.785	
339.600	46.799	
339.700	30.449	
339.800	36.457	
339.900	27.413	
340.000	46.242	
340.100	7.717	
340.200	38.842	
340.300	18.728	
340.400	38.896	
340.500	42.599	
340.600	31.578	
340.700	37.616	
340.800	41.943	
340.900	58.016	
341.000	37.446	
341.100	40.825	
341.200	30.760	
341.300	38.863	
341.400	41.591	
341.500	37.697	
341.600	26.050	
341.700	30.845	
341.800	58.912	
341.900	46.203	
342.000	46.054	
342.100	32.908	
342.200	40.820	
342.300	45.033	
342.400	31.247	
342.500	49.252	
342.600	39.048	
342.700	35.704	
342.800	51.128	
342.900	39.495	
343.000	69.060	
343.100	40.127	
343.200	35.757	
343.300	39.156	
343.400	43.226	
343.500	30.640	
343.600	64.920	
343.700	73.588	
343.800	46.313	
343.900	16.291	
344.000	38.256	
344.100	65.848	
344.200	63.971	
344.300	40.293	
344.400	46.517	
344.500	36.293	
344.600	21.844	
344.700	51.645	
344.800	73.400	
344.900	59.191	
345.000	64.105	
345.100	43.189	
345.200	42.011	
345.300	63.778	
345.400	67.891	
345.500	37.467	
345.600	57.982	
345.700	37.390	
345.800	43.726	
345.900	53.560	
346.000	49.116	
346.100	27.641	
346.200	40.478	
346.300	37.847	
346.400	49.891	
346.500	49.754	
346.600	59.746	
346.700	33.733	
346.800	58.512	
346.900	37.798	
347.000	69.055	
347.100	51.382	
347.200	43.739	
347.300	51.425	
347.400	35.696	
347.500	43.675	
347.600	46.272	
347.700	47.449	
347.800	43.021	
347.900	39.927	
348.000	28.824	
348.100	21.086	
348.200	58.709	
348.300	46.464	
348.400	43.189	
348.500	68.688	
348.600	41.784	
348.700	38.352	
348.800	45.457	
348.900	57.935	
349.000	44.262	
349.100	45.895	
349.200	44.267	
349.300	53.942	
349.400	55.980	
349.500	6.772	
349.600	44.314	
349.700	52.279	
349.800	52.697	
349.900	49.902	
350.000	44.707	
350.100	42.956	
350.200	53.817	
350.300	38.716	
350.400	40.079	
350.500	65.447	
350.600	46.694	
350.700	49.928	
350.800	33.876	
350.900	51.589	
351.000	42.939	
351.100	48.750	
351.200	52.106	
351.300	42.697	
351.400	32.156	
351.500	38.738	
351.600	49.206	
351.700	37.039	
351.800	48.674	
351.900	43.075	
352.000	37.985	
352.100	54.188	
352.200	41.565	
352.300	55.897	
352.400	53.396	
352.500	31.499	
352.600	41.887	
352.700	37.524	
352.800	48.935	
352.900	59.324	
353.000	60.645	
353.100	47.457	
353.200	62.033	
353.300	44.519	
353.400	56.086	
353.500	65.244	
353.600	49.775	
353.700	30.195	
353.800	27.667	
353.900	78.242	
354.000	42.180	
354.100	55.717	
354.200	67.448	
354.300	60.356	
354.400	35.381	
354.500	40.993	
354.600	36.391	
354.700	62.882	
354.800	65.549	
354.900	50.219	
355.000	55.224	
355.100	71.932	
355.200	60.098	
355.300	42.412	
355.400	43.626	
355.500	40.069	
355.600	33.540	
355.700	59.909	
355.800	68.022	
355.900	46.921	
356.000	39.941	
356.100	45.747	
356.200	40.667	
356.300	29.670	
356.400	71.877	
356.500	42.635	
356.600	46.937	
356.700	37.298	
356.800	55.230	
356.900	63.803	
357.000	38.796	
357.100	59.974	
357.200	39.458	
357.300	34.943	
357.400	54.125	
357.500	58.542	
357.600	56.562	
357.700	46.954	
357.800	15.801	
357.900	43.592	
358.000	54.125	
358.100	62.266	
358.200	58.057	
358.300	33.595	
358.400	49.614	
358.500	59.643	
358.600	44.708	
358.700	44.567	
358.800	45.691	
358.900	62.069	
359.000	37.147	
359.100	47.725	
359.200	46.122	
359.300	73.067	
359.400	64.441	
359.500	51.367	
359.600	62.983	
359.700	37.918	
359.800	50.236	
359.900	43.606	
360.000	63.518	
360.100	46.442	
360.200	33.695	
360.300	50.800	
360.400	59.796	
360.500	55.263	
360.600	35.171	
360.700	47.552	
360.800	34.638	
360.900	61.020	
361.000	43.516	
361.100	41.823	
361.200	37.514	
361.300	29.906	
361.400	34.580	
361.500	52.495	
361.600	58.102	
361.700	46.030	
361.800	53.656	
361.900	40.112	
362.000	45.398	
362.100	50.598	
362.200	56.367	
362.300	58.237	
362.400	46.505	
362.500	48.135	
362.600	30.388	
362.700	42.747	
362.800	55.152	
362.900	54.575	
363.000	67.915	
363.100	55.456	
363.200	62.060	
363.300	54.444	
363.400	28.522	
363.500	68.310	
363.600	36.797	
363.700	34.545	
363.800	54.077	
363.900	31.069	
364.000	51.378	
364.100	42.384	
364.200	54.788	
364.300	57.866	
364.400	26.335	
364.500	56.021	
364.600	53.252	
364.700	52.316	
364.800	53.100	
364.900	30.273	
365.000	57.550	
365.100	50.163	
365.200	61.417	
365.300	36.545	
365.400	40.893	
365.500	45.881	
365.600	49.365	
365.700	69.566	
365.800	59.494	
365.900	25.144	
366.000	18.978	
366.100	59.441	
366.200	51.029	
366.300	49.373	
366.400	57.692	
366.500	40.864	
366.600	40.628	
366.700	61.646	
366.800	31.761	
366.900	43.337	
367.000	40.656	
367.100	40.828	
367.200	52.233	
367.300	52.810	
367.400	66.495	
367.500	48.846	
367.600	21.655	
367.700	39.211	
367.800	59.395	
367.900	63.101	
368.000	51.425	
368.100	37.710	
368.200	40.411	
368.300	39.713	
368.400	47.309	
368.500	51.533	
368.600	44.066	
368.700	45.033	
368.800	60.430	
368.900	43.278	
369.000	47.362	
369.100	57.252	
369.200	40.765	
369.300	70.048	
369.400	50.445	
369.500	49.729	
369.600	39.711	
369.700	36.015	
369.800	57.994	
369.900	15.213	
370.000	29.704	
370.100	60.442	
370.200	41.229	
370.300	51.653	
370.400	53.981	
370.500	54.469	
370.600	48.925	
370.700	47.277	
370.800	62.294	
370.900	52.045	
371.000	54.653	
371.100	36.500	
371.200	27.431	
371.300	46.555	
371.400	58.657	
371.500	57.417	
371.600	65.282	
371.700	49.568	
371.800	52.512	
371.900	33.379	
372.000	53.424	
372.100	48.232	
372.200	46.563	
372.300	39.673	
372.400	47.228	
372.500	38.502	
372.600	51.822	
372.700	59.435	
372.800	39.446	
372.900	32.549	
373.000	41.761	
373.100	42.823	
373.200	30.789	
373.300	50.884	
373.400	63.080	
373.500	32.158	
373.600	60.217	
373.700	45.501	
373.800	41.546	
373.900	51.511	
374.000	35.632	
374.100	57.593	
374.200	49.341	
374.300	54.626	
374.400	52.123	
374.500	26.840	
374.600	39.976	
374.700	31.526	
374.800	57.113	
374.900	53.169	
375.000	63.568	
375.100	50.388	
375.200	44.143	
375.300	38.234	
375.400	45.856	
375.500	38.066	
375.600	31.546	
375.700	59.288	
375.800	48.283	
375.900	57.980	
376.000	50.688	
376.100	36.546	
376.200	60.716	
376.300	52.631	
376.400	42.835	
376.500	46.879	
376.600	38.963	
376.700	39.911	
376.800	59.248	
376.900	25.663	
377.000	47.360	
377.100	46.867	
377.200	43.941	
377.300	55.427	
377.400	47.801	
377.500	21.947	
377.600	48.139	
377.700	40.937	
377.800	42.643	
377.900	44.128	
378.000	43.857	
378.100	59.088	
378.200	47.601	
378.300	50.947	
378.400	60.091	
378.500	43.385	
378.600	37.453	
378.700	21.483	
378.800	31.655	
378.900	42.579	
379.000	52.485	
379.100	51.831	
379.200	35.611	
379.300	47.778	
379.400	30.285	
379.500	40.901	
379.600	31.754	
379.700	51.525	
379.800	34.229	
379.900	48.553	
380.000	36.169	
380.100	36.900	
380.200	43.866	
380.300	45.483	
380.400	55.879	
380.500	51.403	
380.600	39.265	
380.700	52.131	
380.800	38.465	
380.900	58.044	
381.000	41.305	
381.100	27.298	
381.200	37.673	
381.300	46.962	
381.400	63.454	
381.500	38.395	
381.600	43.349	
381.700	58.217	
381.800	58.962	
381.900	51.925	
382.000	48.829	
382.100	29.954	
382.200	33.173	
382.300	29.741	
382.400	41.356	
382.500	42.170	
382.600	67.477	
382.700	40.608	
382.800	19.613	
382.900	13.284	
383.000	64.414	
383.100	56.288	
383.200	58.906	
383.300	34.229	
383.400	39.985	
383.500	49.006	
383.600	40.993	
383.700	42.468	
383.800	57.235	
383.900	43.723	
384.000	39.658	
384.100	39.902	
384.200	57.993	
384.300	34.874	
384.400	41.868	
384.500	23.544	
384.600	29.220	
384.700	44.772	
384.800	54.288	
384.900	55.725	
385.000	39.824	
385.100	23.324	
385.200	29.122	
385.300	72.856	
385.400	43.539	
385.500	41.238	
385.600	42.951	
385.700	14.787	
385.800	38.919	
385.900	34.325	
386.000	60.492	
386.100	41.114	
386.200	20.395	
386.300	38.430	
386.400	57.538	
386.500	70.901	
386.600	48.017	
386.700	49.237	
386.800	17.320	
386.900	17.760	
387.000	34.356	
387.100	60.891	
387.200	39.721	
387.300	50.889	
387.400	46.341	
387.500	33.127	
387.600	30.318	
387.700	31.479	
387.800	58.625	
387.900	36.007	
388.000	43.677	
388.100	46.189	
388.200	30.481	
388.300	35.260	
388.400	47.416	
388.500	45.235	
388.600	39.574	
388.700	35.182	
388.800	48.911	
388.900	43.673	
389.000	50.450	
389.100	44.370	
389.200	36.823	
389.300	38.399	
389.400	52.134	
389.500	58.165	
389.600	27.301	
389.700	34.949	
389.800	60.687	
389.900	40.906	
390.000	35.674	
390.100	40.677	
390.200	20.279	
390.300	26.346	
390.400	34.063	
390.500	34.059	
390.600	41.735	
390.700	37.273	
390.800	-2.070	
390.900	17.884	
391.000	16.821	
391.100	24.205	
391.200	14.161	
391.300	16.187	
391.400	10.411	
391.500	16.894	
391.600	27.519	
391.700	28.755	
391.800	10.360	
391.900	-8.893	
392.000	20.185	
392.100	23.035	
392.200	5.454	
392.300	7.717	
392.400	18.283	
392.500	8.149	
392.600	7.557	
392.700	5.069	
392.800	-3.328	
392.900	15.297	
393.000	11.594	
393.100	21.581	
393.200	-1.890	
393.300	-3.627	
393.400	-12.212	
393.500	15.854	
393.600	-3.845	
393.700	16.744	
393.800	3.382	
393.900	-4.021	
394.000	-8.033	
394.100	33.781	
394.200	11.477	
394.300	14.176	
394.400	6.726	
394.500	-18.127	
394.600	15.089	
394.700	2.363	
394.800	5.892	
394.900	0.812	
395.000	-9.855	
395.100	13.169	
395.200	-5.089	
395.300	-14.465	
395.400	7.952	
395.500	-13.319	
395.600	12.150	
395.700	8.501	
395.800	1.569	
395.900	7.966	
396.000	1.376	
396.100	4.475	
396.200	8.128	
396.300	-1.805	
396.400	-1.867	
396.500	-4.094	
396.600	-1.763	
396.700	-11.793	
396.800	-48.946	
396.900	2.532	
397.000	3.322	
397.100	12.330	
397.200	-8.584	
397.300	-13.255	
397.400	-16.959	
397.500	-14.547	
397.600	6.026	
397.700	7.266	
397.800	-15.955	
397.900	2.496	
398.000	-9.372	
398.100	-10.846	
398.200	-0.025	
398.300	2.219	
398.400	-12.474	
398.500	-31.263	
398.600	-8.960	
398.700	-3.849	
398.800	1.858	
398.900	-27.493	
399.000	-17.408	
399.100	-9.276	
399.200	-20.325	
399.300	-11.003	
399.400	8.589	
399.500	-5.955	
399.600	0.009	
399.700	-25.834	
399.800	-0.570	
399.900	-24.884	
400.000	-9.911	
400.100	1.022	
400.200	-32.001	
400.300	-27.349	
400.400	2.839	
400.500	11.047	
400.600	-5.423	
400.700	-22.185	
400.800	-18.219	
400.900	-19.043	
401.000	-0.698	
401.100	3.333	
401.200	-2.434	
401.300	-25.788	
401.400	-22.782	
401.500	-17.260	
401.600	-15.083	
401.700	-1.265	
401.800	-5.227	
401.900	-20.185	
402.000	-13.623	
402.100	-22.270	
402.200	-6.576	
402.300	-22.204	
402.400	-12.393	
402.500	-34.805	
402.600	-16.711	
402.700	-3.244	
402.800	-12.508	
402.900	-26.703	
403.000	-6.390	
403.100	-23.989	
403.200	-23.146	
403.300	-17.070	
403.400	10.430	
403.500	-21.244	
403.600	-38.305	
403.700	-8.307	
403.800	-28.538	
403.900	-36.041	
404.000	-24.125	
404.100	-6.080	
404.200	-18.267	
404.300	-29.683	
404.400	-9.103	
404.500	-18.195	
404.600	-32.106	
404.700	-23.183	
404.800	-10.891	
404.900	-19.689	
405.000	-15.391	
405.100	-6.336	
405.200	-16.434	
405.300	-40.369	
405.400	-25.103	
405.500	-17.170	
405.600	-20.706	
405.700	-6.703	
405.800	-6.716	
405.900	-21.967	
406.000	-34.521	
406.100	-42.377	
406.200	-2.792	
406.300	-10.358	
406.400	-33.907	
406.500	-15.865	
406.600	-39.651	
406.700	-28.795	
406.800	-26.597	
406.900	-17.243	
407.000	-12.127	
407.100	-41.064	
407.200	-34.511	
407.300	-30.316	
407.400	-29.352	
407.500	-28.576	
407.600	-7.379	
407.700	-50.491	
407.800	-29.149	
407.900	-19.255	
408.000	-17.709	
408.100	-23.141	
408.200	-29.296	
408.300	-33.695	
408.400	-28.193	
408.500	-37.824	
408.600	-22.138	
408.700	-17.205	
408.800	-24.708	
408.900	-37.276	
409.000	-22.899	
409.100	-22.601	
409.200	-15.809	
409.300	-19.668	
409.400	-34.218	
409.500	-23.217	
409.600	-12.920	
409.700	-38.871	
409.800	-23.450	
409.900	-25.676	
410.000	-35.456	
410.100	-35.382	
410.200	-33.194	
410.300	-14.270	
410.400	-21.210	
410.500	-29.756	
410.600	-23.066	
410.700	-28.257	
410.800	-18.615	
410.900	-20.615	
411.000	-26.499	
411.100	-27.034	
411.200	-45.177	
411.300	-45.939	
411.400	-40.976	
411.500	-29.862	
411.600	-28.761	
411.700	-18.603	
411.800	-8.047	
411.900	-36.323	
412.000	-33.772	
412.100	-23.894	
412.200	-3.451	
412.300	-45.889	
412.400	-25.696	
412.500	-26.459	
412.600	-26.821	
412.700	-22.491	
412.800	-22.385	
412.900	-29.430	
413.000	-30.637	
413.100	-26.013	
413.200	-22.686	
413.300	-18.002	
413.400	-46.667	
413.500	-11.813	
413.600	-17.840	
413.700	-33.438	
413.800	-30.309	
413.900	-12.223	
414.000	-34.136	
414.100	-39.713	
414.200	-2.282	
414.300	-27.376	
414.400	-18.928	
414.500	-26.059	
414.600	-17.037	
414.700	-34.398	
414.800	-35.557	
414.900	-22.580	
415.000	-8.285	
415.100	-16.135	
415.200	-33.027	
415.300	-23.462	
415.400	-18.550	
415.500	-30.107	
415.600	-24.810	
415.700	-23.981	
415.800	-47.688	
415.900	-40.519	
416.000	-31.052	
416.100	-8.305	
416.200	-11.813	
416.300	-20.525	
416.400	-45.260	
416.500	-21.292	
416.600	-32.841	
416.700	-23.903	
416.800	-16.040	
416.900	-31.278	
417.000	-44.764	
417.100	-20.322	
417.200	-25.500	
417.300	-25.014	
417.400	-12.347	
417.500	-31.601	
417.600	-28.822	
417.700	-43.986	
417.800	0.391	
417.900	-16.324	
418.000	-35.519	
418.100	-25.408	
418.200	-37.461	
418.300	-30.060	
418.400	-37.018	
418.500	-14.700	
418.600	-33.263	
418.700	-16.741	
418.800	-30.730	
418.900	-32.244	
419.000	-26.879	
419.100	-25.354	
419.200	-23.822	
419.300	-23.959	
419.400	-37.777	
419.500	-36.685	
419.600	-24.579	
419.700	-15.157	
419.800	-21.552	
419.900	-31.415	
420.000	-45.537	
420.100	-32.320	
420.200	-30.900	
420.300	-52.790	
420.400	-39.256	
420.500	-22.728	
420.600	-25.506	
420.700	-25.889	
420.800	-14.946	
420.900	-25.809	
421.000	-19.374	
421.100	-18.097	
421.200	-39.655	
421.300	-27.944	
421.400	-24.962	
421.500	-20.803	
421.600	-39.263	
421.700	-32.364	
421.800	-26.054	
421.900	-37.205	
422.000	-17.315	
422.100	-41.533	
422.200	-50.647	
422.300	-26.697	
422.400	-22.572	
422.500	-21.815	
422.600	-34.473	
422.700	-38.779	
422.800	-36.061	
422.900	-18.994	
423.000	-42.568	
423.100	-17.286	
423.200	-37.104	
423.300	1.924	
423.400	-26.182	
423.500	-30.396	
423.600	-38.510	
423.700	-33.883	
423.800	-30.726	
423.900	-15.020	
424.000	-31.184	
424.100	-37.118	
424.200	-32.658	
424.300	-20.920	
424.400	-12.264	
424.500	-26.680	
424.600	-33.022	
424.700	-42.871	
424.800	-21.141	
424.900	-28.015	
425.000	-20.273	
425.100	-37.177	
425.200	-48.095	
425.300	-18.132	
425.400	-30.621	
425.500	-25.957	
425.600	-14.772	
425.700	-34.217	
425.800	-23.780	
425.900	-38.167	
426.000	-26.318	
426.100	-20.337	
426.200	-24.923	
426.300	-20.405	
426.400	-35.579	
426.500	-41.944	
426.600	-20.223	
426.700	-10.453	
426.800	-1.180	
426.900	-25.903	
427.000	-27.693	
427.100	-46.677	
427.200	-26.082	
427.300	-44.611	
427.400	-9.637	
427.500	-30.464	
427.600	-38.207	
427.700	-31.898	
427.800	-11.775	
427.900	-25.916	
428.000	-36.069	
428.100	-40.126	
428.200	-18.927	
428.300	-43.779	
428.400	-25.695	
428.500	-31.970	
428.600	-41.314	
428.700	-13.801	
428.800	-22.274	
428.900	-32.255	
429.000	-35.871	
429.100	-37.273	
429.200	-13.613	
429.300	-11.855	
429.400	-15.346	
429.500	-19.611	
429.600	-9.142	
429.700	-25.663	
429.800	-35.945	
429.900	-39.205	
430.000	-8.535	
430.100	-37.160	
430.200	-13.820	
430.300	-38.141	
430.400	-17.920	
430.500	-53.794	
430.600	-36.026	
430.700	-34.182	
430.800	-15.247	
430.900	-33.620	
431.000	-34.782	
431.100	-11.002	
431.200	-28.029	
431.300	-21.735	
431.400	-18.288	
431.500	-24.418	
431.600	-30.291	
431.700	-21.131	
431.800	-19.066	
431.900	-44.146	
432.000	-14.602	
432.100	-11.702	
432.200	-41.357	
432.300	-5.975	
432.400	-30.639	
432.500	-22.281	
432.600	-26.829	
432.700	-42.254	
432.800	-32.489	
432.900	-25.508	
433.000	-32.266	
433.100	-28.578	
433.200	-15.957	
433.300	-23.604	
433.400	-34.774	
433.500	-36.681	
433.600	-33.373	
433.700	-21.681	
433.800	-6.201	
433.900	-44.798	
434.000	-17.522	
434.100	-24.854	
434.200	-13.829	
434.300	-25.860	
434.400	-25.617	
434.500	-34.661	
434.600	-25.169	
434.700	-38.095	
434.800	-19.329	
434.900	-17.726	
435.000	-52.387	
435.100	-12.516	
435.200	-15.711	
435.300	-29.749	
435.400	-20.892	
435.500	-58.515	
435.600	-26.804	
435.700	-22.569	
435.800	-27.971	
435.900	-28.025	
436.000	-16.859	
436.100	-9.247	
436.200	-38.930	
436.300	-39.866	
436.400	-31.740	
436.500	-7.238	
436.600	-16.481	
436.700	-26.228	
436.800	-24.164	
436.900	-35.318	
437.000	-24.307	
437.100	-7.005	
437.200	-37.637	
437.300	-11.637	
437.400	-41.087	
437.500	-15.166	
437.600	-22.381	
437.700	-15.163	
437.800	-21.182	
437.900	-49.449	
438.000	-30.437	
438.100	-9.637	
438.200	-2.552	
438.300	-21.923	
438.400	-40.492	
438.500	-31.790	
438.600	-39.577	
438.700	1.192	
438.800	-11.278	
438.900	-33.817	
439.000	-24.286	
439.100	-19.008	
439.200	-15.866	
439.300	-32.665	
439.400	-23.593	
439.500	-26.022	
439.600	-39.919	
439.700	-17.083	
439.800	-42.601	
439.900	-29.996	
440.000	3.059	
440.100	-24.551	
440.200	-20.945	
440.300	-42.525	
440.400	-10.095	
440.500	-24.631	
440.600	-0.433	
440.700	-22.578	
440.800	-24.949	
440.900	-46.116	
441.000	-37.091	
441.100	-10.678	
441.200	13.041	
441.300	-16.863	
441.400	-47.509	
441.500	-26.595	
441.600	-20.664	
441.700	-13.154	
441.800	-8.629	
441.900	-9.864	
442.000	-28.833	
442.100	-29.566	
442.200	-7.348	
442.300	-25.030	
442.400	-21.222	
442.500	-18.222	
442.600	-20.913	
442.700	-35.804	
442.800	-35.777	
442.900	-20.637	
443.000	-29.716	
443.100	-19.086	
443.200	-29.954	
443.300	-15.817	
443.400	-16.805	
443.500	-24.332	
443.600	-23.779	
443.700	-13.145	
443.800	-40.690	
443.900	-17.358	
444.000	-29.175	
444.100	-22.479	
444.200	-20.258	
444.300	-30.269	
444.400	-44.275	
444.500	-22.240	
444.600	-17.724	
444.700	-5.494	
444.800	-31.244	
444.900	-24.843	
445.000	-10.912	
445.100	-26.211	
445.200	-38.999	
445.300	-16.282	
445.400	-29.811	
445.500	-42.669	
445.600	-26.680	
445.700	-25.961	
445.800	-15.392	
445.900	-13.194	
446.000	-26.488	
446.100	-24.988	
446.200	-9.682	
446.300	-13.959	
446.400	-30.305	
446.500	-13.235	
446.600	-49.118	
446.700	-29.258	
446.800	-31.684	
446.900	-44.657	
447.000	-9.989	
447.100	-12.365	
447.200	-28.111	
447.300	-33.268	
447.400	-28.369	
447.500	-19.370	
447.600	-10.993	
447.700	-25.102	
447.800	-24.595	
447.900	-34.574	
448.000	-23.918	
448.100	-30.885	
448.200	-8.477	
448.300	-30.961	
448.400	-23.481	
448.500	-17.702	
448.600	-21.996	
448.700	-16.351	
448.800	-22.789	
448.900	-31.140	
449.000	-29.235	
449.100	-15.592	
449.200	-16.144	
449.300	-38.513	
449.400	-9.942	
449.500	-42.524	
449.600	-23.310	
449.700	-26.923	
449.800	-29.390	
449.900	-45.395	
450.000	9.001	
450.100	-24.406	
450.200	-5.215	
450.300	-16.342	
450.400	-2.193	
450.500	0.731	
450.600	-37.448	
450.700	-39.386	
450.800	-23.701	
450.900	-15.645	
451.000	-11.931	
451.100	-31.279	
451.200	-8.996	
451.300	-44.290	
451.400	-9.087	
451.500	-24.706	
451.600	-6.036	
451.700	-5.479	
451.800	-13.974	
451.900	-43.428	
452.000	-32.087	
452.100	-30.152	
452.200	-28.438	
452.300	-21.969	
452.400	-27.168	
452.500	-14.974	
452.600	-15.063	
452.700	-28.134	
452.800	-22.945	
452.900	-29.894	
453.000	-16.388	
453.100	-45.991	
453.200	-35.760	
453.300	9.012	
453.400	-10.879	
453.500	-21.720	
453.600	-39.159	
453.700	-15.070	
453.800	-23.939	
453.900	-28.435	
454.000	-20.821	
454.100	-18.038	
454.200	-28.694	
454.300	-28.064	
454.400	-6.048	
454.500	-24.428	
454.600	-26.676	
454.700	-29.301	
454.800	-19.163	
454.900	-31.800	
455.000	-5.361	
455.100	-4.490	
455.200	-32.239	
455.300	-39.197	
455.400	-31.048	
455.500	-7.756	
455.600	-25.924	
455.700	-15.390	
455.800	-68.267	
455.900	-13.282	
456.000	-7.139	
456.100	-10.579	
456.200	-18.111	
456.300	-24.237	
456.400	-8.438	
456.500	-20.865	
456.600	-39.345	
456.700	-28.247	
456.800	-12.403	
456.900	-9.994	
457.000	-31.550	
457.100	-37.726	
457.200	-18.811	
457.300	-11.577	
457.400	-14.889	
457.500	-7.959	
457.600	-26.625	
457.700	-26.693	
457.800	-34.264	
457.900	-19.004	
458.000	-19.268	
458.100	-13.755	
458.200	-65.383	
458.300	2.831	
458.400	-24.716	
458.500	-24.779	
458.600	-23.292	
458.700	-16.170	
458.800	-17.272	
458.900	-35.740	
459.000	-13.178	
459.100	-22.193	
459.200	-17.774	
459.300	-44.641	
459.400	-14.940	
459.500	-17.493	
459.600	-18.222	
459.700	-10.315	
459.800	-24.933	
459.900	-27.440	
460.000	-30.044	
460.100	-16.168	
460.200	-20.199	
460.300	-10.070	
460.400	-33.098	
460.500	-33.161	
460.600	-14.193	
460.700	-27.977	
460.800	-24.642	
460.900	-27.012	
461.000	-31.470	
461.100	-20.868	
461.200	-26.417	
461.300	-30.435	
461.400	-16.099	
461.500	-14.937	
461.600	-27.725	
461.700	-22.962	
461.800	-17.502	
461.900	-29.946	
462.000	-17.259	
462.100	-3.992	
462.200	-12.800	
462.300	-14.848	
462.400	-26.618	
462.500	-17.703	
462.600	-16.642	
462.700	-11.445	
462.800	-14.498	
462.900	-25.152	
463.000	-5.204	
463.100	-33.452	
463.200	-18.560	
463.300	-23.273	
463.400	-13.234	
463.500	-11.098	
463.600	-43.470	
463.700	-15.874	
463.800	-24.902	
463.900	-31.360	
464.000	-25.925	
464.100	-24.491	
464.200	-23.887	
464.300	-10.606	
464.400	-3.729	
464.500	-31.969	
464.600	-24.136	
464.700	-24.984	
464.800	-25.528	
464.900	-20.385	
465.000	-34.741	
465.100	-29.163	
465.200	-25.127	
465.300	-27.244	
465.400	-22.734	
465.500	-19.150	
465.600	-6.122	
465.700	-1.899	
465.800	-17.848	
465.900	-21.557	
466.000	-33.703	
466.100	-18.042	
466.200	-12.139	
466.300	-16.526	
466.400	-25.117	
466.500	-37.487	
466.600	-14.785	
466.700	4.608	
466.800	-9.790	
466.900	-27.489	
467.000	-34.087	
467.100	-23.092	
467.200	-26.483	
467.300	-15.650	
467.400	-27.691	
467.500	-19.182	
467.600	-25.631	
467.700	-23.232	
467.800	-17.653	
467.900	-24.233	
468.000	-29.260	
468.100	-13.365	
468.200	-29.596	
468.300	-30.698	
468.400	-12.630	
468.500	-6.213	
468.600	-44.212	
468.700	-21.757	
468.800	-41.118	
468.900	-22.511	
469.000	-17.399	
469.100	-19.050	
469.200	-19.911	
469.300	0.852	
469.400	-24.667	
469.500	-15.722	
469.600	8.380	
469.700	-28.396	
469.800	-15.131	
469.900	-27.285	
470.000	-13.341	
470.100	-3.496	
470.200	-9.792	
470.300	-25.498	
470.400	-29.654	
470.500	-20.521	
470.600	-15.406	
470.700	-1.477	
470.800	-1.625	
470.900	-26.789	
471.000	-16.945	
471.100	-30.764	
471.200	-16.075	
471.300	9.442	
471.400	-13.373	
471.500	-25.106	
471.600	-22.618	
471.700	-14.843	
471.800	-15.474	
471.900	-18.915	
472.000	-16.790	
472.100	-5.136	
472.200	-19.307	
472.300	1.685	
472.400	-8.990	
472.500	-22.975	
472.600	-6.472	
472.700	-34.705	
472.800	-14.111	
472.900	-17.489	
473.000	-13.520	
473.100	-9.209	
473.200	-2.050	
473.300	-23.783	
473.400	-10.283	
473.500	-10.395	
473.600	-10.542	
473.700	-22.365	
473.800	-13.106	
473.900	-15.030	
474.000	-24.312	
474.100	-17.659	
474.200	-19.845	
474.300	-14.078	
474.400	-26.680	
474.500	-4.738	
474.600	-21.838	
474.700	-37.080	
474.800	-9.996	
474.900	-23.009	
475.000	-17.127	
475.100	-19.820	
475.200	-32.131	
475.300	-29.447	
475.400	2.170	
475.500	-19.654	
475.600	-17.963	
475.700	-29.252	
475.800	-12.299	
475.900	-18.550	
476.000	-7.878	
476.100	-4.174	
476.200	-29.125	
476.300	-31.280	
476.400	-21.025	
476.500	-16.568	
476.600	-0.550	
476.700	-33.286	
476.800	-15.679	
476.900	-8.979	
477.000	-18.387	
477.100	-21.917	
477.200	-19.349	
477.300	-28.721	
477.400	-19.964	
477.500	-23.914	
477.600	-4.006	
477.700	-18.496	
477.800	-6.471	
477.900	-16.895	
478.000	-18.249	
478.100	-40.927	
478.200	-33.697	
478.300	-9.868	
478.400	-3.403	
478.500	-17.170	
478.600	-23.426	
478.700	-25.145	
478.800	-30.690	
478.900	-23.479	
479.000	-10.265	
479.100	-20.588	
479.200	-14.806	
479.300	-16.213	
479.400	-36.534	
479.500	4.010	
479.600	-11.291	
479.700	-19.728	
479.800	-11.346	
479.900	-32.150	
480.000	-16.692	
480.100	-10.010	
480.200	-20.136	
480.300	-30.794	
480.400	2.054	
480.500	-14.095	
480.600	-5.524	
480.700	-4.597	
480.800	15.760	
480.900	2.032	
481.000	8.661	
481.100	-4.330	
481.200	20.432	
481.300	-4.347	
481.400	12.557	
481.500	-7.378	
481.600	-1.910	
481.700	5.405	
481.800	22.633	
481.900	10.139	
482.000	10.820	
482.100	-1.615	
482.200	27.974	
482.300	19.930	
482.400	14.054	
482.500	-6.910	
482.600	8.939	
482.700	17.361	
482.800	24.138	
482.900	12.009	
483.000	28.496	
483.100	10.641	
483.200	20.274	
483.300	15.000	
483.400	39.023	
483.500	14.303	
483.600	24.934	
483.700	22.475	
483.800	22.547	
483.900	11.554	
484.000	16.170	
484.100	21.218	
484.200	36.955	
484.300	15.278	
484.400	4.049	
484.500	13.976	
484.600	22.482	
484.700	8.309	
484.800	38.007	
484.900	9.592	
485.000	9.735	
485.100	8.059	
485.200	23.502	
485.300	39.698	
485.400	3.540	
485.500	19.312	
485.600	16.524	
485.700	25.271	
485.800	26.092	
485.900	32.455	
486.000	17.677	
486.100	26.449	
486.200	-8.768	
486.300	31.204	
486.400	31.527	
486.500	32.051	
486.600	27.593	
486.700	12.472	
486.800	20.636	
486.900	2.399	
487.000	30.265	
487.100	30.557	
487.200	30.586	
487.300	22.158	
487.400	22.571	
487.500	28.782	
487.600	32.678	
487.700	35.853	
487.800	-0.707	
487.900	12.453	
488.000	37.428	
488.100	31.558	
488.200	35.726	
488.300	34.133	
488.400	15.425	
488.500	38.043	
488.600	13.441	
488.700	43.460	
488.800	45.112	
488.900	35.402	
489.000	32.221	
489.100	43.805	
489.200	22.063	
489.300	26.147	
489.400	38.622	
489.500	40.195	
489.600	17.007	
489.700	37.584	
489.800	52.294	
489.900	34.219	
490.000	46.619	
490.100	21.054	
490.200	37.086	
490.300	22.362	
490.400	48.786	
490.500	25.868	
490.600	43.484	
490.700	36.040	
490.800	31.938	
490.900	33.343	
491.000	39.809	
491.100	32.771	
491.200	41.482	
491.300	35.613	
491.400	34.505	
491.500	28.304	
491.600	44.537	
491.700	57.062	
491.800	40.535	
491.900	36.416	
492.000	37.926	
492.100	37.156	
492.200	32.665	
492.300	62.686	
492.400	47.067	
492.500	44.180	
492.600	29.622	
492.700	37.014	
492.800	36.138	
492.900	64.740	
493.000	52.483	
493.100	3.973	
493.200	56.765	
493.300	45.135	
493.400	34.861	
493.500	52.676	
493.600	52.362	
493.700	18.004	
493.800	17.588	
493.900	62.262	
494.000	55.444	
494.100	26.250	
494.200	34.325	
494.300	40.782	
494.400	40.371	
494.500	42.081	
494.600	71.179	
494.700	42.253	
494.800	30.778	
494.900	42.387	
495.000	54.926	
495.100	49.549	
495.200	46.200	
495.300	43.104	
495.400	29.495	
495.500	38.479	
495.600	41.877	
495.700	55.315	
495.800	54.041	
495.900	40.362	
496.000	26.943	
496.100	50.655	
496.200	42.130	
496.300	43.267	
496.400	43.743	
496.500	17.769	
496.600	47.140	
496.700	51.662	
496.800	53.315	
496.900	35.876	
497.000	52.298	
497.100	37.747	
497.200	33.727	
497.300	60.882	
497.400	43.841	
497.500	52.472	
497.600	28.079	
497.700	64.148	
497.800	40.024	
497.900	41.037	
498.000	50.995	
498.100	38.737	
498.200	41.329	
498.300	40.625	
498.400	39.481	
498.500	46.157	
498.600	49.402	
498.700	61.629	
498.800	40.285	
498.900	31.431	
499.000	39.308	
499.100	27.634	
499.200	66.950	
499.300	56.380	
499.400	53.260	
499.500	32.194	
499.600	49.440	
499.700	33.845	
499.800	61.418	
499.900	39.281	
500.000	42.039	
500.100	37.789	
500.200	58.006	
500.300	59.751	
500.400	50.046	
500.500	52.576	
500.600	35.465	
500.700	45.152	
500.800	50.047	
500.900	40.677	
501.000	34.557	
501.100	44.555	
501.200	23.573	
501.300	54.564	
501.400	59.643	
501.500	24.978	
501.600	77.070	
501.700	28.174	
501.800	37.780	
501.900	58.009	
502.000	32.585	
502.100	61.684	
502.200	47.439	
502.300	36.740	
502.400	46.794	
502.500	45.584	
502.600	43.129	
502.700	44.798	
502.800	36.345	
502.900	42.056	
503.000	42.674	
503.100	43.183	
503.200	42.309	
503.300	78.123	
503.400	55.452	
503.500	31.625	
503.600	48.072	
503.700	28.247	
503.800	46.759	
503.900	37.757	
504.000	55.900	
504.100	34.288	
504.200	29.333	
504.300	26.434	
504.400	60.216	
504.500	39.489	
504.600	48.664	
504.700	57.510	
504.800	30.341	
504.900	40.713	
505.000	59.090	
505.100	55.616	
505.200	43.813	
505.300	12.344	
505.400	45.682	
505.500	62.777	
505.600	62.723	
505.700	44.282	
505.800	53.965	
505.900	41.740	
506.000	42.173	
506.100	50.837	
506.200	45.200	
506.300	59.494	
506.400	46.887	
506.500	37.533	
506.600	40.557	
506.700	44.941	
506.800	35.889	
506.900	37.082	
507.000	49.635	
507.100	38.728	
507.200	50.872	
507.300	70.796	
507.400	50.209	
507.500	50.511	
507.600	52.566	
507.700	34.127	
507.800	53.455	
507.900	53.910	
508.000	50.393	
508.100	31.702	
508.200	30.665	
508.300	37.991	
508.400	42.258	
508.500	37.768	
508.600	54.885	
508.700	32.312	
508.800	24.991	
508.900	27.392	
509.000	43.777	
509.100	53.237	
509.200	40.176	
509.300	26.139	
509.400	47.834	
509.500	50.124	
509.600	54.893	
509.700	37.751	
509.800	51.873	
509.900	40.895	
510.000	27.728	
510.100	57.681	
510.200	53.536	
510.300	45.682	
510.400	38.152	
510.500	36.124	
510.600	42.142	
510.700	33.814	
510.800	44.596	
510.900	31.272	
511.000	33.824	
511.100	54.002	
511.200	37.003	
511.300	54.530	
511.400	60.756	
511.500	52.607	
511.600	30.382	
511.700	34.830	
511.800	51.670	
511.900	35.037	
512.000	47.407	
512.100	33.200	
512.200	30.581	
512.300	33.065	
512.400	38.971	
512.500	55.255	
512.600	73.580	
512.700	56.013	
512.800	40.403	
512.900	18.002	
513.000	39.938	
513.100	54.028	
513.200	43.669	
513.300	34.402	
513.400	38.635	
513.500	42.848	
513.600	32.432	
513.700	67.423	
513.800	45.450	
513.900	36.610	
514.000	41.362	
514.100	37.628	
514.200	33.966	
514.300	40.107	
514.400	40.865	
514.500	36.961	
514.600	32.264	
514.700	34.536	
514.800	69.155	
514.900	55.317	
515.000	47.682	
515.100	15.388	
515.200	36.909	
515.300	50.713	
515.400	50.825	
515.500	42.259	
515.600	35.386	
515.700	40.565	
515.800	44.915	
515.900	52.409	
516.000	35.807	
516.100	34.156	
516.200	51.026	
516.300	41.590	
516.400	34.912	
516.500	51.721	
516.600	25.158	
516.700	24.659	
516.800	41.613	
516.900	38.273	
517.000	49.963	
517.100	42.711	
517.200	27.387	
517.300	24.213	
517.400	40.126	
517.500	54.506	
517.600	51.345	
517.700	45.049	
517.800	45.761	
517.900	41.181	
518.000	47.337	
518.100	25.949	
518.200	29.860	
518.300	53.965	
518.400	45.065	
518.500	38.873	
518.600	32.703	
518.700	31.962	
518.800	43.816	
518.900	61.906	
519.000	42.069	
519.100	28.150	
519.200	36.354	
519.300	42.068	
519.400	50.958	
519.500	41.066	
519.600	49.725	
519.700	43.886	
519.800	28.450	
519.900	39.885	
520.000	50.044	
520.100	28.778	
520.200	50.537	
520.300	49.791	
520.400	23.389	
520.500	27.982	
520.600	47.223	
520.700	76.213	
520.800	40.942	
520.900	33.541	
521.000	41.281	
521.100	36.690	
521.200	37.199	
521.300	32.998	
521.400	48.526	
521.500	62.225	
521.600	38.191	
521.700	35.873	
521.800	59.014	
521.900	56.367	
522.000	41.668	
522.100	28.260	
522.200	44.383	
522.300	33.515	
522.400	54.554	
522.500	46.553	
522.600	41.788	
522.700	36.634	
522.800	41.112	
522.900	39.335	
523.000	61.300	
523.100	47.180	
523.200	49.210	
523.300	35.572	
523.400	36.323	
523.500	27.103	
523.600	48.695	
523.700	46.327	
523.800	27.511	
523.900	53.465	
524.000	43.824	
524.100	56.281	
524.200	55.406	
524.300	39.373	
524.400	37.181	
524.500	44.608	
524.600	40.015	
524.700	46.043	
524.800	26.150	
524.900	39.938	
525.000	24.087	
525.100	44.166	
525.200	43.869	
525.300	62.855	
525.400	43.751	
525.500	22.178	
525.600	47.609	
525.700	45.715	
525.800	61.252	
525.900	43.450	
526.000	39.333	
526.100	31.369	
526.200	35.030	
526.300	43.426	
526.400	47.617	
526.500	49.639	
526.600	34.587	
526.700	25.111	
526.800	21.656	
526.900	51.752	
527.000	51.281	
527.100	27.131	
527.200	40.032	
527.300	45.766	
527.400	25.118	
527.500	30.294	
527.600	34.010	
527.700	61.371	
527.800	40.196	
527.900	14.453	
528.000	23.109	
528.100	55.975	
528.200	52.452	
528.300	50.175	
528.400	21.975	
528.500	17.501	
528.600	37.889	
528.700	18.590	
528.800	39.804	
528.900	36.218	
529.000	38.354	
529.100	19.749	
529.200	40.492	
529.300	33.080	
529.400	42.021	
529.500	49.354	
529.600	40.590	
529.700	29.074	
529.800	22.316	
529.900	33.352	
530.000	69.762	
530.100	57.238	
530.200	35.405	
530.300	40.335	
530.400	38.125	
530.500	52.700	
530.600	37.137	
530.700	42.294	
530.800	40.136	
530.900	15.268	
531.000	35.401	
531.100	44.357	
531.200	41.204	
531.300	37.573	
531.400	16.590	
531.500	37.075	
531.600	45.379	
531.700	39.876	
531.800	42.198	
531.900	39.241	
532.000	28.768	
532.100	37.397	
532.200	47.039	
532.300	49.657	
532.400	37.765	
532.500	20.544	
532.600	34.580	
532.700	34.519	
532.800	46.916	
532.900	17.175	
533.000	40.747	
533.100	38.945	
533.200	24.506	
533.300	43.130	
533.400	33.861	
533.500	45.445	
533.600	54.628	
533.700	39.818	
533.800	40.824	
533.900	28.777	
534.000	52.694	
534.100	57.933	
534.200	29.698	
534.300	39.575	
534.400	21.185	
534.500	55.218	
534.600	36.687	
534.700	40.106	
534.800	30.427	
534.900	33.668	
535.000	36.774	
535.100	41.543	
535.200	40.573	
535.300	33.952	
535.400	44.306	
535.500	47.279	
535.600	39.358	
535.700	53.317	
535.800	34.017	
535.900	39.470	
536.000	31.904	
536.100	35.031	
536.200	38.614	
536.300	52.193	
536.400	41.194	
536.500	70.308	
536.600	43.945	
536.700	24.093	
536.800	35.582	
536.900	50.696	
537.000	45.169	
537.100	50.200	
537.200	25.002	
537.300	40.209	
537.400	24.132	
537.500	35.694	
537.600	51.080	
537.700	23.111	
537.800	41.518	
537.900	34.151	
538.000	29.365	
538.100	47.586	
538.200	30.422	
538.300	34.524	
538.400	34.370	
538.500	38.937	
538.600	44.411	
538.700	57.205	
538.800	43.832	
538.900	41.753	
539.000	5.222	
539.100	39.661	
539.200	36.241	
539.300	21.482	
539.400	45.470	
539.500	42.101	
539.600	49.822	
539.700	49.756	
539.800	27.374	
539.900	46.099	
540.000	36.457	
540.100	38.502	
540.200	26.196	
540.300	45.633	
540.400	57.345	
540.500	27.820	
540.600	33.739	
540.700	-4.033	
540.800	32.680	
540.900	26.707	
541.000	32.481	
541.100	11.511	
541.200	9.098	
541.300	13.793	
541.400	3.739	
541.500	10.562	
541.600	17.224	
541.700	23.361	
541.800	-2.543	
541.900	5.561	
542.000	10.307	
542.100	14.274	
542.200	19.945	
542.300	6.709	
542.400	-4.387	
542.500	3.634	
542.600	1.531	
542.700	27.102	
542.800	1.207	
542.900	18.002	
543.000	12.469	
543.100	-5.742	
543.200	8.652	
543.300	29.144	
543.400	34.541	
543.500	4.905	
543.600	-15.894	
543.700	-2.812	
543.800	-0.670	
543.900	-4.542	
544.000	-6.396	
544.100	-2.159	
544.200	12.240	
544.300	-6.542	
544.400	13.055	
544.500	7.035	
544.600	8.239	
544.700	-14.574	
544.800	-4.505	
544.900	9.466	
545.000	24.718	
545.100	9.644	
545.200	-14.045	
545.300	4.518	
545.400	-2.564	
545.500	2.176	
545.600	3.880	
545.700	-4.292	
545.800	-0.762	
545.900	-5.163	
546.000	-6.721	
546.100	-7.973	
546.200	0.033	
546.300	5.213	
546.400	6.124	
546.500	-2.053	
546.600	-13.071	
546.700	2.738	
546.800	1.172	
546.900	-6.565	
547.000	0.175	
547.100	-31.694	
547.200	-11.476	
547.300	-24.308	
547.400	7.210	
547.500	1.032	
547.600	-16.899	
547.700	-28.262	
547.800	-0.161	
547.900	-12.913	
548.000	-17.188	
548.100	1.591	
548.200	-31.623	
548.300	-1.293	
548.400	-12.619	
548.500	-3.363	
548.600	6.655	
548.700	-4.456	
548.800	-14.125	
548.900	-10.322	
549.000	-13.032	
549.100	1.036	
549.200	-0.047	
549.300	-22.388	
549.400	-18.919	
549.500	-21.158	
549.600	1.575	
549.700	11.062	
549.800	-3.818	
549.900	-11.628	
550.000	-36.687	
550.100	-20.258	
550.200	-10.831	
550.300	-13.156	
550.400	-20.510	
550.500	-3.656	
550.600	1.175	
550.700	-2.626	
550.800	7.555	
550.900	-21.645	
551.000	-15.199	
551.100	-45.287	
551.200	-9.160	
551.300	-14.697	
551.400	-19.294	
551.500	-17.026	
551.600	-25.889	
551.700	-27.763	
551.800	-15.090	
551.900	-40.847	
552.000	-0.238	
552.100	-24.515	
552.200	-7.553	
552.300	-23.593	
552.400	-30.592	
552.500	-16.687	
552.600	-7.418	
552.700	-13.825	
552.800	-35.159	
552.900	-23.910	
553.000	-18.765	
553.100	-24.563	
553.200	-10.103	
553.300	-21.384	
553.400	-18.034	
553.500	-30.997	
553.600	-28.990	
553.700	-10.272	
553.800	-20.096	
553.900	-22.819	
554.000	-12.319	
554.100	-40.300	
554.200	-38.665	
554.300	0.338	
554.400	-10.699	
554.500	-24.628	
554.600	-49.405	
554.700	-18.963	
554.800	-8.262	
554.900	-31.454	
555.000	-21.494	
555.100	-26.073	
555.200	-32.508	
555.300	-25.127	
555.400	-41.280	
555.500	-31.445	
555.600	-25.157	
555.700	-4.081	
555.800	-48.391	
555.900	-15.881	
556.000	-16.928	
556.100	-3.512	
556.200	-7.443	
556.300	-32.387	
556.400	-25.510	
556.500	-32.103	
556.600	-31.651	
556.700	-36.332	
556.800	-22.740	
556.900	-10.389	
557.000	-31.808	
557.100	-34.596	
557.200	-35.957	
557.300	8.988	
557.400	-27.164	
557.500	-50.779	
557.600	-32.822	
557.700	-20.644	
557.800	-42.503	
557.900	-33.276	
558.000	-33.662	
558.100	-33.010	
558.200	-4.286	
558.300	-24.186	
558.400	-1.502	
558.500	-26.654	
558.600	-16.426	
558.700	-29.356	
558.800	-18.953	
558.900	-2.058	
559.000	-37.553	
559.100	-32.243	
559.200	-50.738	
559.300	-32.279	
559.400	-23.221	
559.500	-23.141	
559.600	-23.400	
559.700	-19.475	
559.800	-14.428	
559.900	-20.133	
560.000	-23.360	
560.100	-31.889	
560.200	-7.963	
560.300	-27.029	
560.400	-30.840	
560.500	-25.724	
560.600	-18.091	
560.700	-16.664	
560.800	-41.741	
560.900	-4.309	
561.000	-14.037	
561.100	-32.158	
561.200	-14.730	
561.300	-19.750	
561.400	-1.825	
561.500	-40.527	
561.600	-45.915	
561.700	-26.867	
561.800	-15.199	
561.900	-16.020	
562.000	-28.409	
562.100	-23.501	
562.200	-25.428	
562.300	-9.073	
562.400	-26.931	
562.500	-14.546	
562.600	-26.194	
562.700	-38.199	
562.800	-42.621	
562.900	-24.847	
563.000	-24.428	
563.100	-11.348	
563.200	-49.411	
563.300	-17.013	
563.400	-36.343	
563.500	-7.174	
563.600	-19.259	
563.700	-15.033	
563.800	-20.837	
563.900	-32.412	
564.000	-38.244	
564.100	-20.330	
564.200	-23.106	
564.300	-35.737	
564.400	-34.479	
564.500	-32.279	
564.600	-19.819	
564.700	-50.818	
564.800	-17.355	
564.900	-21.131	
565.000	-38.477	
565.100	-17.883	
565.200	-31.571	
565.300	-28.264	
565.400	-36.915	
565.500	-33.959	
565.600	-11.427	
565.700	-27.206	
565.800	-19.054	
565.900	-14.525	
566.000	-46.625	
566.100	-38.257	
566.200	-23.055	
566.300	-38.934	
566.400	-17.798	
566.500	-26.522	
566.600	-13.512	
566.700	-15.261	
566.800	-23.493	
566.900	-33.101	
567.000	-23.752	
567.100	-36.632	
567.200	-20.310	
567.300	-34.626	
567.400	-41.946	
567.500	-23.385	
567.600	-30.741	
567.700	-18.728	
567.800	-30.181	
567.900	-32.920	
568.000	-38.705	
568.100	-16.032	
568.200	-27.698	
568.300	-39.029	
568.400	-29.042	
568.500	-34.768	
568.600	-22.281	
568.700	-30.386	
568.800	-31.385	
568.900	-41.331	
569.000	-38.152	
569.100	-43.478	
569.200	-33.539	
569.300	-27.042	
569.400	-8.400	
569.500	-25.303	
569.600	-34.789	
569.700	-26.819	
569.800	-30.260	
569.900	-21.551	
570.000	-5.188	
570.100	-33.854	
570.200	-46.886	
570.300	-45.576	
570.400	-16.021	
570.500	-12.421	
570.600	-48.437	
570.700	-32.097	
570.800	-22.524	
570.900	-26.446	
571.000	-19.589	
571.100	-20.790	
571.200	-19.076	
571.300	-42.833	
571.400	-32.274	
571.500	-16.419	
571.600	-26.827	
571.700	-23.436	
571.800	-32.276	
571.900	-16.636	
572.000	-27.344	
572.100	-25.314	
572.200	-36.156	
572.300	-23.794	
572.400	-26.983	
572.500	-37.416	
572.600	-19.899	
572.700	-38.992	
572.800	-22.493	
572.900	-5.142	
573.000	-5.620	
573.100	-30.307	
573.200	-56.810	
573.300	-36.020	
573.400	-20.555	
573.500	-20.942	
573.600	-32.234	
573.700	-33.481	
573.800	-37.983	
573.900	-12.567	
574.000	-21.705	
574.100	-24.471	
574.200	-18.870	
574.300	-29.736	
574.400	-44.486	
574.500	-12.995	
574.600	-6.984	
574.700	-37.095	
574.800	-42.187	
574.900	-20.058	
575.000	-10.872	
575.100	-23.361	
575.200	-13.333	
575.300	-21.588	
575.400	-23.225	
575.500	-39.510	
575.600	-28.004	
575.700	-12.555	
575.800	-23.104	
575.900	-43.676	
576.000	-17.238	
576.100	-14.780	
576.200	-37.005	
576.300	-34.029	
576.400	-3.922	
576.500	-11.115	
576.600	-29.012	
576.700	-28.791	
576.800	-34.600	
576.900	-11.257	
577.000	-28.379	
577.100	-31.189	
577.200	-11.475	
577.300	-37.865	
577.400	-10.838	
577.500	-21.979	
577.600	-21.637	
577.700	-14.054	
577.800	-45.090	
577.900	-42.718	
578.000	-20.086	
578.100	-16.577	
578.200	-10.243	
578.300	-34.592	
578.400	-23.501	
578.500	-29.435	
578.600	-19.805	
578.700	-32.256	
578.800	-35.503	
578.900	-19.873	
579.000	-30.465	
579.100	-24.017	
579.200	-32.370	
579.300	-13.018	
579.400	-7.555	
579.500	-37.797	
579.600	-25.044	
579.700	-9.651	
579.800	5.826	
579.900	-16.075	
580.000	-35.633	
580.100	-56.540	
580.200	-13.277	
580.300	-27.202	
580.400	-25.965	
580.500	-17.790	
580.600	-10.411	
580.700	-26.604	
580.800	-42.426	
580.900	-40.800	
581.000	-15.583	
581.100	-17.805	
581.200	-22.992	
581.300	-31.607	
581.400	-46.690	
581.500	-6.526	
581.600	-12.341	
581.700	-54.282	
581.800	-24.263	
581.900	-35.662	
582.000	-8.120	
582.100	-16.970	
582.200	-21.918	
582.300	-24.607	
582.400	-20.679	
582.500	-20.060	
582.600	-39.270	
582.700	-32.503	
582.800	-22.620	
582.900	-35.172	
583.000	-31.073	
583.100	-12.584	
583.200	-8.742	
583.300	-29.389	
583.400	-22.106	
583.500	-20.385	
583.600	-28.367	
583.700	-42.514	
583.800	-22.920	
583.900	-13.827	
584.000	-9.933	
584.100	-15.308	
584.200	-19.705	
584.300	-7.014	
584.400	-38.574	
584.500	-26.865	
584.600	3.804	
584.700	-22.937	
584.800	-23.132	
584.900	-32.652	
585.000	-47.518	
585.100	-10.420	
585.200	-12.072	
585.300	-26.031	
585.400	-8.402	
585.500	-24.991	
585.600	-18.044	
585.700	-17.098	
585.800	-42.405	
585.900	-36.310	
586.000	-23.981	
586.100	-1.748	
586.200	-19.598	
586.300	-35.629	
586.400	-28.795	
586.500	-17.307	
586.600	-34.044	
586.700	-30.453	
586.800	-4.914	
586.900	-33.934	
587.000	-33.073	
587.100	-22.101	
587.200	-39.011	
587.300	-30.815	
587.400	-0.479	
587.500	-10.867	
587.600	-19.704	
587.700	-33.337	
587.800	-32.303	
587.900	-32.141	
588.000	3.068	
588.100	-1.322	
588.200	-27.988	
588.300	-34.817	
588.400	-28.319	
588.500	-22.815	
588.600	-11.307	
588.700	-38.114	
588.800	-25.453	
588.900	-21.960	
589.000	-22.156	
589.100	-31.218	
589.200	-32.624	
589.300	-17.014	
589.400	-11.322	
589.500	-41.442	
589.600	-17.965	
589.700	1.343	
589.800	-25.449	
589.900	-26.657	
590.000	-26.699	
590.100	-18.044	
590.200	-34.158	
590.300	-20.715	
590.400	-7.129	
590.500	-27.706	
590.600	-1.700	
590.700	-28.500	
590.800	-11.166	
590.900	-27.650	
591.000	-26.520	
591.100	-17.942	
591.200	-25.143	
591.300	-28.453	
591.400	-26.339	
591.500	-29.359	
591.600	-11.636	
591.700	-18.460	
591.800	-20.156	
591.900	-19.500	
592.000	-29.499	
592.100	7.953	
592.200	-19.167	
592.300	-31.529	
592.400	-29.099	
592.500	-36.781	
592.600	-29.860	
592.700	-32.740	
592.800	-15.992	
592.900	-34.685	
593.000	-29.002	
593.100	-20.759	
593.200	-18.902	
593.300	-21.891	
593.400	-6.458	
593.500	-16.401	
593.600	-33.784	
593.700	-43.292	
593.800	-21.353	
593.900	-22.026	
594.000	-18.593	
594.100	-29.482	
594.200	-11.503	
594.300	-31.892	
594.400	-29.021	
594.500	-17.288	
594.600	-15.234	
594.700	-33.324	
594.800	-14.425	
594.900	-15.797	
595.000	-12.681	
595.100	-29.260	
595.200	-30.884	
595.300	-23.276	
595.400	-24.317	
595.500	-16.458	
595.600	-11.460	
595.700	-18.160	
595.800	-26.449	
595.900	-30.492	
596.000	-24.452	
596.100	-25.109	
596.200	-15.224	
596.300	-26.711	
596.400	-17.529	
596.500	-39.275	
596.600	-13.729	
596.700	-11.430	
596.800	-11.055	
596.900	-37.421	
597.000	-28.879	
597.100	-18.609	
597.200	-34.575	
597.300	-14.736	
597.400	-0.220	
597.500	-40.295	
597.600	-20.936	
597.700	-39.076	
597.800	-24.663	
597.900	-10.328	
598.000	-6.984	
598.100	-34.608	
598.200	-7.906	
598.300	-19.731	
598.400	-15.317	
598.500	0.824	
598.600	-39.135	
598.700	-17.746	
598.800	-17.040	
598.900	2.107	
599.000	0.434	
599.100	-7.231	
599.200	-39.008	
599.300	-38.403	
599.400	-32.809	
599.500	-15.023	
599.600	-2.261	
599.700	-26.425	
599.800	-16.233	
599.900	-19.649	
600.000	-23.356	
600.100	-4.513	
600.200	0.830	
600.300	-34.460	
600.400	-27.705	
600.500	-36.291	
600.600	-25.859	
600.700	-28.489	
600.800	-7.194	
600.900	-2.520	
601.000	-14.165	
601.100	-18.012	
601.200	-22.808	
601.300	4.099	
601.400	-18.514	
601.500	-15.829	
601.600	-42.851	
601.700	-24.173	
601.800	-33.631	
601.900	-9.269	
602.000	-17.197	
602.100	-22.623	
602.200	-16.345	
602.300	-23.164	
602.400	-12.567	
602.500	-17.151	
602.600	-29.713	
602.700	-5.870	
602.800	-33.488	
602.900	-12.864	
603.000	-17.587	
603.100	-30.545	
603.200	-25.928	
603.300	-47.136	
603.400	-28.859	
603.500	-26.326	
603.600	-12.809	
603.700	-13.455	
603.800	-20.802	
603.900	-21.560	
604.000	-23.822	
604.100	-24.684	
604.200	-11.466	
604.300	-6.768	
604.400	-26.081	
604.500	-27.135	
604.600	-12.830	
604.700	-15.235	
604.800	-29.815	
604.900	-34.352	
605.000	-15.108	
605.100	-14.904	
605.200	-35.412	
605.300	-22.879	
605.400	-12.978	
605.500	-18.078	
605.600	-29.441	
605.700	-34.870	
605.800	-30.437	
605.900	-31.871	
606.000	-8.159	
606.100	-19.338	
606.200	-16.218	
606.300	-28.201	
606.400	-11.878	
606.500	-26.590	
606.600	-23.005	
606.700	-17.672	
606.800	-0.999	
606.900	-34.904	
607.000	-40.625	
607.100	-26.164	
607.200	-14.319	
607.300	-30.576	
607.400	-27.382	
607.500	-23.949	
607.600	-14.143	
607.700	-26.894	
607.800	-22.292	
607.900	-21.360	
608.000	-41.331	
608.100	-15.618	
608.200	-13.213	
608.300	-15.345	
608.400	-16.225	
608.500	-13.854	
608.600	-26.157	
608.700	-47.271	
608.800	-31.112	
608.900	-4.697	
609.000	-11.636	
609.100	-41.116	
609.200	-35.062	
609.300	-35.303	
609.400	-9.212	
609.500	-3.782	
609.600	-4.664	
609.700	-25.121	
609.800	-36.246	
609.900	-36.381	
610.000	-9.618	
610.100	-7.019	
610.200	-9.566	
610.300	-30.671	
610.400	-22.513	
610.500	-29.917	
610.600	-29.210	
610.700	-13.944	
610.800	-15.792	
610.900	-24.390	
611.000	-23.207	
611.100	-12.111	
611.200	-21.852	
611.300	-22.844	
611.400	-2.947	
611.500	-24.754	
611.600	-44.413	
611.700	0.819	
611.800	-27.264	
611.900	-23.479	
612.000	-25.123	
612.100	-32.983	
612.200	-7.704	
612.300	-14.292	
612.400	-10.865	
612.500	-19.097	
612.600	-21.278	
612.700	-28.905	
612.800	-23.801	
612.900	-28.583	
613.000	-22.482	
613.100	-25.889	
613.200	-15.691	
613.300	-9.890	
613.400	-18.960	
613.500	-2.750	
613.600	-28.811	
613.700	-8.422	
613.800	-16.150	
613.900	-16.420	
614.000	-31.169	
614.100	0.011	
614.200	4.249	
614.300	-17.155	
614.400	-26.676	
614.500	-31.637	
614.600	-7.744	
614.700	-25.321	
614.800	-12.354	
614.900	-21.404	
615.000	-20.619	
615.100	-26.190	
615.200	-31.265	
615.300	-16.279	
615.400	2.505	
615.500	-45.606	
615.600	-32.420	
615.700	-21.578	
615.800	-12.461	
615.900	-14.847	
616.000	-12.434	
616.100	-8.169	
616.200	-20.237	
616.300	-32.108	
616.400	-8.004	
616.500	-36.583	
616.600	-18.883	
616.700	-32.161	
616.800	-29.771	
616.900	-2.051	
617.000	-22.986	
617.100	-21.566	
617.200	-30.155	
617.300	-16.059	
617.400	-20.155	
617.500	-43.315	
617.600	-16.147	
617.700	0.158	
617.800	-28.865	
617.900	-17.721	
618.000	-22.041	
618.100	-23.691	
618.200	-8.667	
618.300	-10.304	
618.400	-19.300	
618.500	-36.018	
618.600	-15.921	
618.700	-15.529	
618.800	4.380	
618.900	-5.878	
619.000	-14.397	
619.100	-19.715	
619.200	-32.426	
619.300	-18.875	
619.400	-22.203	
619.500	-35.178	
619.600	-3.407	
619.700	-18.222	
619.800	4.233	
619.900	-30.340	
620.000	-25.961	
620.100	-8.885	
620.200	-38.305	
620.300	-25.732	
620.400	-25.726	
620.500	-15.680	
620.600	-10.798	
620.700	-6.150	
620.800	-24.239	
620.900	-25.051	
621.000	-17.496	
621.100	-24.935	
621.200	-7.710	
621.300	-22.098	
621.400	-26.115	
621.500	-39.897	
621.600	8.049	
621.700	5.648	
621.800	-8.957	
621.900	-14.226	
622.000	-49.021	
622.100	-16.973	
622.200	-12.405	
622.300	-13.467	
622.400	-2.082	
622.500	-14.412	
622.600	-23.263	
622.700	-26.097	
622.800	-14.193	
622.900	-12.014	
623.000	-17.192	
623.100	-27.258	
623.200	-22.561	
623.300	-36.889	
623.400	-6.293	
623.500	-24.562	
623.600	-17.481	
623.700	-37.526	
623.800	-15.646	
623.900	-7.335	
624.000	-21.917	
624.100	-17.548	
624.200	-12.265	
624.300	-35.093	
624.400	-21.757	
624.500	-22.608	
624.600	-13.367	
624.700	-26.053	
624.800	-5.653	
624.900	-35.069	
625.000	-6.409	
625.100	-25.278	
625.200	-10.209	
625.300	-20.631	
625.400	-18.760	
625.500	-14.031	
625.600	-24.309	
625.700	-23.427	
625.800	-27.175	
625.900	-2.631	
626.000	-29.698	
626.100	-16.603	
626.200	-31.126	
626.300	-39.208	
626.400	-7.366	
626.500	-23.884	
626.600	-26.607	
626.700	-0.526	
626.800	-16.168	
626.900	-19.405	
627.000	15.150	
627.100	-15.290	
627.200	-56.315	
627.300	-25.171	
627.400	-26.913	
627.500	-19.779	
627.600	19.402	
627.700	-19.026	
627.800	2.149	
627.900	-15.563	
628.000	-15.952	
628.100	-27.724	
628.200	-5.804	
628.300	-27.919	
628.400	-16.329	
628.500	-14.340	
628.600	-18.265	
628.700	-12.532	
628.800	-11.200	
628.900	-22.528	
629.000	-23.142	
629.100	-3.234	
629.200	-28.841	
629.300	-1.540	
629.400	-14.411	
629.500	-25.178	
629.600	-21.950	
629.700	-35.306	
629.800	-5.095	
629.900	0.451	
630.000	-14.204	
630.100	-6.924	
630.200	-17.817	
630.300	-16.641	
630.400	7.237	
630.500	2.683	
630.600	-18.436	
630.700	-29.568	
630.800	-2.865	
630.900	12.327	
631.000	20.185	
631.100	7.279	
631.200	-3.953	
631.300	-4.106	
631.400	7.638	
631.500	17.125	
631.600	11.873	
631.700	-0.951	
631.800	5.383	
631.900	7.792	
632.000	19.346	
632.100	-2.638	
632.200	15.943	
632.300	3.645	
632.400	19.928	
632.500	2.561	
632.600	9.907	
632.700	12.187	
632.800	19.829	
632.900	-5.539	
633.000	16.605	
633.100	4.406	
633.200	11.468	
633.300	23.229	
633.400	26.106	
633.500	9.325	
633.600	25.411	
633.700	16.333	
633.800	14.432	
633.900	5.582	
634.000	14.665	
634.100	-2.786	
634.200	23.083	
634.300	22.925	
634.400	23.365	
634.500	19.915	
634.600	6.200	
634.700	7.885	
634.800	30.567	
634.900	-9.369	
635.000	22.494	
635.100	5.375	
635.200	13.780	
635.300	6.916	
635.400	4.186	
635.500	51.167	
635.600	38.920	
635.700	19.707	
635.800	-6.962	
635.900	14.949	
636.000	30.836	
636.100	29.816	
636.200	29.888	
636.300	26.506	
636.400	12.611	
636.500	27.726	
636.600	18.840	
636.700	27.714	
636.800	-8.814	
636.900	41.644	
637.000	26.026	
637.100	26.860	
637.200	42.375	
637.300	20.726	
637.400	8.192	
637.500	43.855	
637.600	25.241	
637.700	38.967	
637.800	28.960	
637.900	38.674	
638.000	38.019	
638.100	29.476	
638.200	18.817	
638.300	37.565	
638.400	33.704	
638.500	32.975	
638.600	33.961	
638.700	37.739	
638.800	9.671	
638.900	27.245	
639.000	37.966	
639.100	57.296	
639.200	39.101	
639.300	26.773	
639.400	22.222	
639.500	57.634	
639.600	48.961	
639.700	33.139	
639.800	30.176	
639.900	21.824	
640.000	34.123	
640.100	45.007	
640.200	53.529	
640.300	39.583	
640.400	35.711	
640.500	48.805	
640.600	25.919	
640.700	49.095	
640.800	29.107	
640.900	12.174	
641.000	33.879	
641.100	24.521	
641.200	54.262	
641.300	42.774	
641.400	56.070	
641.500	55.674	
641.600	33.246	
641.700	25.455	
641.800	33.280	
641.900	24.996	
642.000	47.858	
642.100	48.829	
642.200	30.603	
642.300	40.374	
642.400	33.884	
642.500	55.906	
642.600	58.302	
642.700	37.579	
642.800	59.887	
642.900	30.547	
643.000	45.977	
643.100	56.630	
643.200	46.310	
643.300	52.054	
643.400	40.064	
643.500	59.058	
643.600	41.133	
643.700	48.544	
643.800	54.284	
643.900	20.482	
644.000	32.908	
644.100	32.642	
644.200	46.231	
644.300	49.670	
644.400	46.845	
644.500	44.610	
644.600	38.197	
644.700	40.385	
644.800	33.791	
644.900	63.832	
645.000	61.614	
645.100	34.381	
645.200	22.245	
645.300	33.725	
645.400	44.359	
645.500	49.921	
645.600	52.944	
645.700	53.938	
645.800	42.557	
645.900	39.762	
646.000	48.401	
646.100	47.539	
646.200	36.775	
646.300	45.327	
646.400	34.867	
646.500	36.370	
646.600	38.811	
646.700	28.101	
646.800	51.632	
646.900	51.551	
647.000	40.451	
647.100	44.134	
647.200	50.368	
647.300	50.697	
647.400	60.970	
647.500	36.526	
647.600	47.085	
647.700	56.732	
647.800	46.831	
647.900	26.890	
648.000	34.942	
648.100	43.307	
648.200	44.516	
648.300	39.961	
648.400	40.720	
648.500	54.381	
648.600	39.331	
648.700	24.938	
648.800	32.000	
648.900	30.622	
649.000	43.948	
649.100	52.016	
649.200	44.428	
649.300	35.606	
649.400	45.565	
649.500	24.736	
649.600	56.093	
649.700	19.597	
649.800	47.130	
649.900	44.015	
650.000	48.191	
650.100	38.942	
650.200	31.125	
650.300	42.911	
650.400	62.618	
650.500	22.716	
650.600	35.234	
650.700	41.453	
650.800	34.576	
650.900	42.435	
651.000	37.896	
651.100	25.453	
651.200	54.907	
651.300	45.153	
651.400	42.392	
651.500	58.809	
651.600	41.458	
651.700	47.190	
651.800	47.158	
651.900	32.941	
652.000	30.362	
652.100	48.058	
652.200	41.742	
652.300	45.943	
652.400	46.465	
652.500	51.667	
652.600	49.161	
652.700	11.118	
652.800	36.045	
652.900	48.625	
653.000	44.404	
653.100	40.961	
653.200	34.068	
653.300	27.414	
653.400	70.907	
653.500	36.811	
653.600	50.891	
653.700	27.262	
653.800	43.630	
653.900	42.339	
654.000	27.565	
654.100	62.067	
654.200	32.877	
654.300	34.686	
654.400	21.526	
654.500	39.178	
654.600	49.936	
654.700	67.886	
654.800	58.159	
654.900	43.280	
655.000	36.680	
655.100	21.376	
655.200	37.416	
655.300	31.860	
655.400	66.835	
655.500	26.704	
655.600	41.470	
655.700	28.572	
655.800	49.004	
655.900	41.555	
656.000	40.871	
656.100	30.186	
656.200	41.160	
656.300	58.700	
656.400	69.460	
656.500	27.465	
656.600	34.253	
656.700	37.706	
656.800	45.403	
656.900	54.484	
657.000	52.937	
657.100	62.878	
657.200	49.074	
657.300	35.192	
657.400	44.123	
657.500	58.013	
657.600	32.275	
657.700	33.148	
657.800	20.790	
657.900	46.383	
658.000	57.241	
658.100	22.370	
658.200	48.124	
658.300	54.291	
658.400	38.174	
658.500	40.519	
658.600	38.533	
658.700	54.367	
658.800	61.368	
658.900	38.092	
659.000	40.700	
659.100	29.943	
659.200	23.628	
659.300	38.434	
659.400	52.343	
659.500	60.941	
659.600	20.966	
659.700	50.107	
659.800	41.365	
659.900	43.681	
660.000	48.285	
660.100	44.747	
660.200	39.137	
660.300	35.858	
660.400	45.706	
660.500	56.075	
660.600	52.065	
660.700	41.707	
660.800	35.029	
660.900	17.528	
661.000	59.069	
661.100	52.212	
661.200	30.163	
661.300	41.675	
661.400	58.688	
661.500	69.841	
661.600	45.053	
661.700	28.418	
661.800	26.282	
661.900	54.807	
662.000	33.617	
662.100	31.469	
662.200	32.470	
662.300	43.622	
662.400	47.599	
662.500	44.659	
662.600	41.531	
662.700	36.983	
662.800	57.703	
662.900	53.286	
663.000	30.322	
663.100	52.130	
663.200	46.489	
663.300	38.916	
663.400	35.176	
663.500	60.546	
663.600	40.387	
663.700	39.440	
663.800	50.568	
663.900	32.231	
664.000	45.976	
664.100	35.805	
664.200	46.345	
664.300	35.062	
664.400	11.973	
664.500	44.289	
664.600	35.114	
664.700	36.382	
664.800	34.121	
664.900	40.507	
665.000	36.139	
665.100	46.993	
665.200	43.207	
665.300	41.801	
665.400	30.325	
665.500	49.843	
665.600	27.303	
665.700	50.149	
665.800	41.801	
665.900	44.345	
666.000	22.395	
666.100	41.513	
666.200	27.210	
666.300	43.987	
666.400	44.535	
666.500	40.791	
666.600	26.204	
666.700	35.672	
666.800	51.565	
666.900	40.241	
667.000	34.460	
667.100	52.343	
667.200	41.935	
667.300	37.219	
667.400	33.807	
667.500	36.512	
667.600	52.545	
667.700	30.413	
667.800	36.946	
667.900	39.671	
668.000	61.177	
668.100	42.820	
668.200	54.242	
668.300	32.129	
668.400	35.619	
668.500	42.637	
668.600	24.151	
668.700	54.805	
668.800	37.630	
668.900	32.971	
669.000	27.356	
669.100	48.157	
669.200	41.584	
669.300	61.991	
669.400	47.946	
669.500	28.434	
669.600	30.421	
669.700	28.623	
669.800	53.242	
669.900	42.988	
670.000	35.880	
670.100	32.523	
670.200	36.382	
670.300	30.565	
670.400	38.936	
670.500	45.473	
670.600	36.590	
670.700	35.820	
670.800	33.083	
670.900	32.918	
671.000	41.846	
671.100	66.515	
671.200	16.992	
671.300	51.405	
671.400	47.160	
671.500	27.265	
671.600	48.460	
671.700	34.231	
671.800	25.915	
671.900	25.530	
672.000	44.022	
672.100	52.137	
672.200	34.329	
672.300	60.569	
672.400	19.286	
672.500	53.821	
672.600	53.504	
672.700	29.773	
672.800	44.829	
672.900	35.346	
673.000	11.304	
673.100	29.100	
673.200	34.506	
673.300	54.914	
673.400	35.748	
673.500	55.992	
673.600	27.116	
673.700	47.778	
673.800	41.101	
673.900	26.466	
674.000	60.230	
674.100	37.085	
674.200	53.578	
674.300	14.937	
674.400	34.863	
674.500	52.228	
674.600	41.492	
674.700	32.247	
674.800	33.898	
674.900	41.285	
675.000	51.438	
675.100	60.737	
675.200	42.961	
675.300	22.524	
675.400	28.616	
675.500	48.046	
675.600	42.273	
675.700	36.934	
675.800	27.754	
675.900	23.215	
676.000	36.176	
676.100	40.980	
676.200	42.808	
676.300	49.055	
676.400	42.011	
676.500	35.873	
676.600	27.678	
676.700	12.137	
676.800	50.915	
676.900	55.699	
677.000	27.245	
677.100	34.307	
677.200	36.392	
677.300	44.800	
677.400	35.979	
677.500	47.505	
677.600	27.975	
677.700	50.029	
677.800	36.424	
677.900	32.524	
678.000	47.665	
678.100	20.197	
678.200	37.756	
678.300	38.020	
678.400	43.572	
678.500	41.049	
678.600	35.105	
678.700	31.407	
678.800	31.049	
678.900	28.549	
679.000	18.141	
679.100	44.099	
679.200	41.641	
679.300	18.721	
679.400	34.650	
679.500	21.441	
679.600	41.588	
679.700	42.088	
679.800	63.070	
679.900	9.452	
680.000	20.332	
680.100	43.956	
680.200	39.315	
680.300	58.776	
680.400	51.083	
680.500	35.716	
680.600	42.788	
680.700	11.033	
680.800	50.582	
680.900	42.102	
681.000	71.586	
681.100	45.662	
681.200	22.886	
681.300	20.782	
681.400	28.957	
681.500	53.073	
681.600	56.655	
681.700	46.332	
681.800	41.770	
681.900	19.380	
682.000	26.089	
682.100	63.906	
682.200	42.955	
682.300	21.640	
682.400	45.807	
682.500	32.739	
682.600	37.578	
682.700	48.020	
682.800	44.672	
682.900	37.061	
683.000	30.402	
683.100	43.140	
683.200	48.381	
683.300	38.167	
683.400	50.360	
683.500	38.752	
683.600	12.672	
683.700	36.991	
683.800	39.063	
683.900	42.170	
684.000	40.849	
684.100	36.269	
684.200	40.020	
684.300	55.666	
684.400	24.814	
684.500	43.744	
684.600	32.988	
684.700	28.458	
684.800	27.642	
684.900	42.336	
685.000	33.326	
685.100	34.957	
685.200	21.425	
685.300	30.960	
685.400	59.654	
685.500	44.281	
685.600	59.165	
685.700	48.199	
685.800	47.844	
685.900	23.554	
686.000	15.894	
686.100	46.862	
686.200	37.520	
686.300	37.209	
686.400	36.493	
686.500	43.861	
686.600	55.400	
686.700	56.473	
686.800	27.282	
686.900	43.788	
687.000	47.439	
687.100	33.361	
687.200	35.384	
687.300	45.962	
687.400	40.549	
687.500	31.853	
687.600	31.836	
687.700	49.714	
687.800	36.249	
687.900	40.067	
688.000	16.062	
688.100	36.259	
688.200	29.163	
688.300	31.482	
688.400	43.859	
688.500	23.138	
688.600	42.573	
688.700	34.602	
688.800	23.850	
688.900	39.475	
689.000	46.115	
689.100	39.806	
689.200	17.043	
689.300	26.642	
689.400	49.884	
689.500	47.706	
689.600	49.668	
689.700	9.827	
689.800	31.312	
689.900	33.151	
690.000	28.078	
690.100	20.609	
690.200	19.670	
690.300	45.944	
690.400	36.887	
690.500	16.974	
690.600	15.542	
690.700	37.339	
690.800	11.642	
690.900	35.472	
691.000	18.509	
691.100	4.316	
691.200	12.759	
691.300	8.046	
691.400	16.282	
691.500	11.166	
691.600	16.810	
691.700	25.494	
691.800	13.957	
691.900	-2.691	
692.000	5.052	
692.100	1.750	
692.200	8.338	
692.300	-10.009	
692.400	19.791	
692.500	19.043	
692.600	-14.989	
692.700	4.912	
692.800	-1.945	
692.900	-2.856	
693.000	8.012	
693.100	19.089	
693.200	0.971	
693.300	9.079	
693.400	8.363	
693.500	-5.705	
693.600	6.324	
693.700	12.404	
693.800	-7.249	
693.900	-16.025	
694.000	-0.654	
694.100	4.957	
694.200	-0.216	
694.300	-19.641	
694.400	5.883	
694.500	-28.158	
694.600	13.391	
694.700	3.125	
694.800	-5.863	
694.900	-2.292	
695.000	-22.483	
695.100	17.827	
695.200	7.387	
695.300	-4.795	
695.400	-8.838	
695.500	3.454	
695.600	-1.999	
695.700	0.360	
695.800	-11.494	
695.900	-0.224	
696.000	3.171	
696.100	-5.656	
696.200	0.284	
696.300	-24.962	
696.400	12.090	
696.500	-12.761	
696.600	-21.843	
696.700	7.714	
696.800	-31.029	
696.900	-26.727	
697.000	-10.464	
697.100	0.627	
697.200	-9.644	
697.300	3.064	
697.400	-7.840	
697.500	0.985	
697.600	-20.070	
697.700	-17.221	
697.800	1.212	
697.900	7.403	
698.000	-10.991	
698.100	-9.947	
698.200	-8.960	
698.300	5.005	
698.400	-3.441	
698.500	-33.445	
698.600	3.583	
698.700	-25.097	
698.800	0.229	
698.900	7.596	
699.000	-8.377	
699.100	-8.726	
699.200	-8.612	
699.300	-10.111	
699.400	-5.298	
699.500	-24.915	
699.600	-17.141	
699.700	1.322	
699.800	-24.589	
699.900	-31.764	
700.000	-7.566	
700.100	-9.887	
700.200	2.289	
700.300	-5.148	
700.400	-13.193	
700.500	-9.353	
700.600	-7.586	
700.700	-38.188	
700.800	-5.775	
700.900	-9.019	
701.000	-15.593	
701.100	-3.100	
701.200	-32.828	
701.300	-22.132	
701.400	-18.091	
701.500	-25.640	
701.600	-7.068	
701.700	-9.042	
701.800	-6.440	
701.900	-19.273	
702.000	-34.689	
702.100	-8.564	
702.200	-23.444	
702.300	-8.188	
702.400	-20.752	
702.500	-14.598	
702.600	-16.056	
702.700	-29.979	
702.800	-17.506	
702.900	-35.117	
703.000	-13.276	
703.100	-26.736	
703.200	-23.085	
703.300	-17.379	
703.400	2.446	
703.500	-30.913	
703.600	-15.904	
703.700	-32.960	
703.800	-29.010	
703.900	-30.297	
704.000	-9.016	
704.100	-32.710	
704.200	-21.606	
704.300	-39.992	
704.400	-21.563	
704.500	-31.574	
704.600	-36.147	
704.700	-7.759	
704.800	-29.776	
704.900	-12.318	
705.000	-24.415	
705.100	-26.079	
705.200	-19.938	
705.300	-34.776	
705.400	-39.152	
705.500	-10.592	
705.600	-35.985	
705.700	-22.666	
705.800	-22.528	
705.900	-13.990	
706.000	-37.198	
706.100	-28.697	
706.200	-23.099	
706.300	-23.633	
706.400	-23.504	
706.500	-23.091	
706.600	-20.845	
706.700	-33.098	
706.800	-27.978	
706.900	-41.912	
707.000	-38.877	
707.100	-29.104	
707.200	-23.694	
707.300	-12.410	
707.400	-12.269	
707.500	-24.837	
707.600	-27.327	
707.700	-17.283	
707.800	-30.694	
707.900	-26.981	
708.000	-25.414	
708.100	-38.863	
708.200	-34.499	
708.300	-45.261	
708.400	-25.724	
708.500	-26.003	
708.600	1.133	
708.700	-31.273	
708.800	-34.322	
708.900	-13.526	
709.000	-23.455	
709.100	-21.075	
709.200	-26.900	
709.300	-9.788	
709.400	-37.138	
709.500	-45.620	
709.600	-27.134	
709.700	-37.173	
709.800	-18.830	
709.900	-14.832	
710.000	-5.766	
710.100	-24.340	
710.200	-38.177	
710.300	-18.381	
710.400	-30.679	
710.500	-28.080	
710.600	-44.700	
710.700	-31.294	
710.800	-17.248	
710.900	-42.528	
711.000	-3.339	
711.100	-4.134	
711.200	-13.472	
711.300	-17.698	
711.400	-44.998	
711.500	-24.014	
711.600	-18.907	
711.700	-63.794	
711.800	-17.446	
711.900	-20.768	
712.000	-18.529	
712.100	-16.145	
712.200	-28.473	
712.300	-39.132	
712.400	-20.264	
712.500	-24.774	
712.600	-28.024	
712.700	-20.480	
712.800	-11.066	
712.900	-22.706	
713.000	-34.045	
713.100	-36.526	
713.200	-22.105	
713.300	-42.688	
713.400	-30.915	
713.500	-11.951	
713.600	-42.249	
713.700	-27.824	
713.800	-20.237	
713.900	-33.960	
714.000	-31.210	
714.100	-43.911	
714.200	-19.027	
714.300	-23.978	
714.400	-56.942	
714.500	-36.895	
714.600	-25.817	
714.700	-23.091	
714.800	-19.571	
714.900	-42.174	
715.000	-26.198	
715.100	-31.541	
715.200	-36.169	
715.300	-29.212	
715.400	-25.753	
715.500	-47.521	
715.600	-31.933	
715.700	-26.945	
715.800	-34.454	
715.900	-14.976	
716.000	-20.190	
716.100	-36.836	
716.200	-23.011	
716.300	-23.309	
716.400	-19.436	
716.500	-35.409	
716.600	-18.304	
716.700	-16.844	
716.800	-28.816	
716.900	-51.328	
717.000	-6.686	
717.100	-30.566	
717.200	-30.873	
717.300	-22.737	
717.400	-27.179	
717.500	-5.008	
717.600	-43.162	
717.700	-22.701	
717.800	-35.918	
717.900	-26.887	
718.000	-34.822	
718.100	-21.779	
718.200	-23.919	
718.300	-12.838	
718.400	-21.350	
718.500	-26.629	
718.600	-34.562	
718.700	-45.037	
718.800	-23.969	
718.900	-21.841	
719.000	-23.301	
719.100	-15.681	
719.200	-29.136	
719.300	-22.217	
719.400	-42.316	
719.500	-18.447	
719.600	-27.888	
719.700	-30.247	
719.800	-47.654	
719.900	-16.367	
720.000	-21.472	
720.100	-30.039	
720.200	-24.171	
720.300	-29.379	
720.400	8.069	
720.500	-2.684	
720.600	-25.936	
720.700	-15.966	
720.800	-27.098	
720.900	-41.054	
721.000	-39.073	
721.100	-25.064	
721.200	-28.199	
721.300	-29.887	
721.400	-26.201	
721.500	-23.412	
721.600	-25.439	
721.700	-37.653	
721.800	-36.714	
721.900	-46.632	
722.000	-20.546	
722.100	-19.879	
722.200	-19.632	
722.300	-41.970	
722.400	-27.348	
722.500	-46.396	
722.600	-14.479	
722.700	-20.432	
722.800	-20.890	
722.900	-23.243	
723.000	-24.920	
723.100	-31.798	
723.200	-5.230	
723.300	-41.096	
723.400	-23.516	
723.500	-23.624	
723.600	-22.322	
723.700	-31.621	
723.800	-41.589	
723.900	-25.022	
724.000	-18.303	
724.100	-13.660	
724.200	-46.930	
724.300	-25.227	
724.400	-56.464	
724.500	-31.489	
724.600	-19.777	
724.700	-27.632	
724.800	-50.944	
724.900	-16.666	
725.000	-19.620	
725.100	-43.639	
725.200	-16.897	
725.300	-24.971	
725.400	-32.683	
725.500	-19.999	
725.600	-38.577	
725.700	-40.628	
725.800	-38.990	
725.900	-28.605	
726.000	-27.615	
726.100	-34.405	
726.200	-29.761	
726.300	-30.497	
726.400	-35.486	
726.500	-38.866	
726.600	-31.280	
726.700	-24.628	
726.800	-22.989	
726.900	-32.112	
727.000	-28.021	
727.100	-18.357	
727.200	-36.562	
727.300	-26.670	
727.400	-22.664	
727.500	-16.681	
727.600	-28.658	
727.700	-52.995	
727.800	-5.845	
727.900	-31.104	
728.000	-32.340	
728.100	-21.154	
728.200	-16.670	
728.300	-22.984	
728.400	-56.236	
728.500	-24.726	
728.600	-38.121	
728.700	-13.285	
728.800	-17.492	
728.900	-33.217	
729.000	-30.872	
729.100	-22.579	
729.200	-29.162	
729.300	-19.560	
729.400	-42.168	
729.500	-21.133	
729.600	-19.017	
729.700	-28.037	
729.800	-26.188	
729.900	-33.905	
730.000	-31.099	
730.100	-28.128	
730.200	-47.544	
730.300	-36.929	
730.400	-50.172	
730.500	-24.523	
730.600	2.249	
730.700	-22.675	
730.800	-36.818	
730.900	-26.114	
731.000	-24.032	
731.100	-11.204	
731.200	-17.107	
731.300	-19.223	
731.400	-13.743	
731.500	-13.968	
731.600	-16.025	
731.700	-46.501	
731.800	-19.922	
731.900	-40.207	
732.000	-22.916	
732.100	-28.273	
732.200	-28.385	
732.300	-33.171	
732.400	-19.211	
732.500	-34.536	
732.600	-30.658	
732.700	-22.744	
732.800	-26.625	
732.900	-27.702	
733.000	-28.331	
733.100	-31.325	
733.200	-37.761	
733.300	-1.455	
733.400	-22.829	
733.500	-16.298	
733.600	-32.856	
733.700	-29.533	
733.800	-33.985	
733.900	-31.104	
734.000	-54.320	
734.100	-20.328	
734.200	-20.544	
734.300	-3.167	
734.400	-19.521	
734.500	-21.854	
734.600	-27.629	
734.700	-42.947	
734.800	-24.907	
734.900	-29.741	
735.000	-47.099	
735.100	-22.163	
735.200	-11.291	
735.300	-18.456	
735.400	-32.637	
735.500	-28.248	
735.600	-23.088	
735.700	-41.547	
735.800	-33.454	
735.900	-10.078	
736.000	-44.122	
736.100	-43.240	
736.200	-23.838	
736.300	-5.770	
736.400	-21.065	
736.500	-29.873	
736.600	-33.601	
736.700	-35.151	
736.800	6.470	
736.900	-23.389	
737.000	-21.683	
737.100	-32.363	
737.200	-37.678	
737.300	-30.816	
737.400	-11.907	
737.500	-13.457	
737.600	-48.764	
737.700	-41.328	
737.800	-4.675	
737.900	-21.766	
738.000	-13.293	
738.100	-15.868	
738.200	-48.676	
738.300	-38.122	
738.400	-10.603	
738.500	-26.572	
738.600	-12.904	
738.700	-27.145	
738.800	-33.968	
738.900	-12.040	
739.000	-21.449	
739.100	-1.490	
739.200	-34.099	
739.300	-28.201	
739.400	-11.010	
739.500	-11.147	
739.600	-11.815	
739.700	-34.120	
739.800	-24.788	
739.900	-14.543	
740.000	-17.157	
740.100	-24.582	
740.200	-44.337	
740.300	-24.184	
740.400	-25.128	
740.500	-13.702	
740.600	-22.463	
740.700	-31.735	
740.800	-17.323	
740.900	-18.895	
741.000	-31.077	
741.100	-34.743	
741.200	-34.383	
741.300	-7.608	
741.400	-44.058	
741.500	-31.078	
741.600	-18.283	
741.700	-25.990	
741.800	-47.571	
741.900	-17.867	
742.000	-6.595	
742.100	-25.228	
742.200	-33.427	
742.300	-21.559	
742.400	-19.822	
742.500	-40.811	
742.600	-25.640	
742.700	-2.634	
742.800	-27.582	
742.900	-25.366	
743.000	-20.949	
743.100	-19.661	
743.200	0.177	
743.300	-22.647	
743.400	-35.259	
743.500	-19.133	
743.600	-32.180	
743.700	-33.525	
743.800	-31.493	
743.900	-35.034	
744.000	-6.483	
744.100	-19.824	
744.200	-19.406	
744.300	-21.423	
744.400	-27.934	
744.500	-9.737	
744.600	-23.573	
744.700	-28.877	
744.800	-21.723	
744.900	-42.161	
745.000	-5.102	
745.100	-39.752	
745.200	-20.328	
745.300	-2.477	
745.400	-14.810	
745.500	-41.644	
745.600	-30.821	
745.700	-26.784	
745.800	-23.506	
745.900	-34.063	
746.000	-32.502	
746.100	-19.513	
746.200	-12.600	
746.300	-11.039	
746.400	-43.478	
746.500	-20.652	
746.600	-39.141	
746.700	-9.050	
746.800	-31.778	
746.900	-17.371	
747.000	-15.953	
747.100	-15.782	
747.200	-14.266	
747.300	-27.989	
747.400	-36.627	
747.500	-32.641	
747.600	-27.047	
747.700	-20.132	
747.800	-11.482	
747.900	-12.289	
748.000	-23.556	
748.100	-29.232	
748.200	-15.725	
748.300	-38.383	
748.400	-6.431	
748.500	-20.358	
748.600	-30.423	
748.700	-21.867	
748.800	-28.793	
748.900	-8.227	
749.000	-0.940	
749.100	-13.011	
749.200	-25.202	
749.300	-22.710	
749.400	-1.852	
749.500	-20.646	
749.600	-24.090	
749.700	-22.744	
749.800	-11.932	
749.900	-33.999	
750.000	-36.662	
750.100	-27.067	
750.200	-8.844	
750.300	-26.376	
750.400	-28.857	
750.500	-32.883	
750.600	-28.934	
750.700	-37.432	
750.800	-3.416	
750.900	-4.531	
751.000	-32.198	
751.100	-13.397	
751.200	-21.331	
751.300	-24.359	
751.400	-20.102	
751.500	-0.141	
751.600	-21.341	
751.700	-4.985	
751.800	-10.153	
751.900	-11.816	
752.000	-42.922	
752.100	-17.826	
752.200	-22.314	
752.300	-14.763	
752.400	-18.525	
752.500	-18.851	
752.600	-12.065	
752.700	-23.753	
752.800	-9.532	
752.900	-49.747	
753.000	-35.639	
753.100	-10.729	
753.200	-12.785	
753.300	-16.421	
753.400	-36.573	
753.500	-9.139	
753.600	-19.701	
753.700	-23.129	
753.800	-17.604	
753.900	-26.480	
754.000	-27.549	
754.100	-9.461	
754.200	-16.619	
754.300	-17.276	
754.400	-43.121	
754.500	-0.037	
754.600	-32.420	
754.700	-40.962	
754.800	-20.139	
754.900	-13.478	
755.000	-29.768	
755.100	-22.636	
755.200	-7.186	
755.300	-14.602	
755.400	-30.615	
755.500	-28.475	
755.600	-19.841	
755.700	-43.199	
755.800	-20.373	
755.900	-8.676	
756.000	4.727	
756.100	-13.257	
756.200	-37.502	
756.300	-1.371	
756.400	-29.939	
756.500	-5.348	
756.600	-9.488	
756.700	-11.576	
756.800	-18.967	
756.900	-52.107	
757.000	-18.049	
757.100	-33.277	
757.200	4.609	
757.300	-22.535	
757.400	-20.965	
757.500	-31.088	
757.600	-19.704	
757.700	-10.053	
757.800	-26.581	
757.900	-26.148	
758.000	-7.363	
758.100	-12.219	
758.200	-22.122	
758.300	-44.083	
758.400	-4.311	
758.500	-15.053	
758.600	-21.713	
758.700	-7.837	
758.800	-9.956	
758.900	-7.090	
759.000	-37.268	
759.100	-28.823	
759.200	-24.318	
759.300	-9.783	
759.400	-32.576	
759.500	-13.380	
759.600	-21.157	
759.700	-26.794	
759.800	-19.110	
759.900	-13.978	
760.000	-25.182	
760.100	-24.391	
760.200	-27.660	
760.300	-26.371	
760.400	-18.324	
760.500	-39.685	
760.600	-10.510	
760.700	-27.179	
760.800	-29.587	
760.900	-21.589	
761.000	-20.182	
761.100	-21.120	
761.200	-20.525	
761.300	-7.862	
761.400	-22.642	
761.500	-22.240	
761.600	-36.298	
761.700	-28.857	
761.800	-12.468	
761.900	-5.605	
762.000	-19.332	
762.100	-26.772	
762.200	-11.518	
762.300	-23.826	
762.400	-35.310	
762.500	-19.826	
762.600	-14.764	
762.700	-11.811	
762.800	-23.186	
762.900	-10.768	
763.000	-12.380	
763.100	-7.788	
763.200	-25.627	
763.300	-18.649	
763.400	-28.002	
763.500	-15.192	
763.600	-29.798	
763.700	-40.967	
763.800	-1.852	
763.900	-29.193	
764.000	-22.359	
764.100	-26.768	
764.200	-31.847	
764.300	-22.718	
764.400	-8.469	
764.500	-34.994	
764.600	-16.214	
764.700	7.179	
764.800	-25.428	
764.900	-4.283	
765.000	-17.604	
765.100	-17.202	
765.200	-30.148	
765.300	-26.142	
765.400	-14.724	
765.500	-7.876	
765.600	-33.255	
765.700	-27.861	
765.800	-29.554	
765.900	-37.431	
766.000	6.060	
766.100	-6.154	
766.200	-19.810	
766.300	-23.117	
766.400	-31.588	
766.500	-21.513	
766.600	-32.976	
766.700	-16.146	
766.800	-26.402	
766.900	-14.356	
767.000	-22.095	
767.100	-26.111	
767.200	-32.802	
767.300	-20.948	
767.400	-27.559	
767.500	-2.910	
767.600	-18.421	
767.700	-14.347	
767.800	-16.418	
767.900	-35.168	
768.000	-6.206	
768.100	-25.664	
768.200	-6.145	
768.300	-31.886	
768.400	-24.365	
768.500	-29.887	
768.600	-36.810	
768.700	-10.502	
768.800	-10.470	
768.900	-28.949	
769.000	-17.418	
769.100	-20.159	
769.200	-27.328	
769.300	-12.115	
769.400	-34.190	
769.500	-6.674	
769.600	-18.866	
769.700	-21.448	
769.800	-35.664	
769.900	-32.709	
770.000	-13.737	
770.100	-10.532	
770.200	-25.643	
770.300	-12.968	
770.400	-23.223	
770.500	-30.575	
770.600	-14.379	
770.700	-21.402	
770.800	-20.062	
770.900	-18.325	
771.000	-33.728	
771.100	-22.298	
771.200	-17.627	
771.300	-23.792	
771.400	-5.618	
771.500	-18.450	
771.600	-17.088	
771.700	-14.953	
771.800	-2.267	
771.900	-34.377	
772.000	-28.572	
772.100	-33.906	
772.200	-16.110	
772.300	-23.387	
772.400	4.366	
772.500	-18.915	
772.600	-33.316	
772.700	-9.356	
772.800	-24.087	
772.900	-20.062	
773.000	-30.783	
773.100	-7.749	
773.200	-15.573	
773.300	-20.359	
773.400	-29.499	
773.500	-25.097	
773.600	-2.319	
773.700	-17.818	
773.800	-8.264	
773.900	-16.867	
774.000	-8.874	
774.100	-7.102	
774.200	-21.956	
774.300	-19.697	
774.400	-14.376	
774.500	-17.863	
774.600	-16.733	
774.700	-19.871	
774.800	-29.525	
774.900	2.985	
775.000	-6.810	
775.100	-48.981	
775.200	-23.121	
775.300	-14.482	
775.400	-6.369	
775.500	-0.266	
775.600	-17.916	
775.700	-11.704	
775.800	-8.420	
775.900	-33.155	
776.000	-14.216	
776.100	-19.767	
776.200	-31.272	
776.300	5.079	
776.400	-28.260	
776.500	-12.644	
776.600	-44.519	
776.700	-14.287	
776.800	-9.412	
776.900	-19.949	
777.000	-34.755	
777.100	-7.133	
777.200	-18.208	
777.300	-24.122	
777.400	-19.971	
777.500	-5.535	
777.600	-37.547	
777.700	-22.376	
777.800	-21.122	
777.900	-14.670	
778.000	1.052	
778.100	-11.427	
778.200	-41.455	
778.300	-23.947	
778.400	-7.293	
778.500	-42.660	
778.600	-9.268	
778.700	-4.340	
778.800	-40.097	
778.900	-0.320	
779.000	-18.769	
779.100	-29.124	
779.200	17.672	
779.300	-10.447	
779.400	-28.263	
779.500	-8.551	
779.600	-11.278	
779.700	-20.091	
779.800	-10.732	
779.900	-4.877	
780.000	-7.482	
780.100	-31.260	
780.200	-16.250	
780.300	0.141	
780.400	-2.165	
780.500	-18.692	
780.600	1.928	
780.700	-16.970	
780.800	-16.529	
780.900	0.857	
781.000	9.357	
781.100	20.882	
781.200	-11.656	
781.300	8.156	
781.400	-2.718	
781.500	1.434	
781.600	15.146	
781.700	25.479	
781.800	6.229	
781.900	14.338	
782.000	6.296	
782.100	12.492	
782.200	5.605	
782.300	-0.068	
782.400	-1.068	
782.500	31.118	
782.600	-8.972	
782.700	10.391	
782.800	20.611	
782.900	5.370	
783.000	24.976	
783.100	-0.702	
783.200	19.371	
783.300	11.422	
783.400	27.193	
783.500	9.954	
783.600	18.277	
783.700	1.098	
783.800	23.292	
783.900	-7.940	
784.000	35.219	
784.100	6.540	
784.200	8.858	
784.300	11.781	
784.400	28.789	
784.500	25.422	
784.600	23.168	
784.700	26.828	
784.800	15.266	
784.900	17.323	
785.000	11.895	
785.100	35.727	
785.200	13.388	
785.300	37.797	
785.400	24.769	
785.500	23.699	
785.600	13.337	
785.700	31.429	
785.800	27.315	
785.900	21.308	
786.000	44.644	
786.100	40.774	
786.200	32.637	
786.300	16.722	
786.400	18.147	
786.500	23.821	
786.600	26.030	
786.700	26.061	
786.800	25.670	
786.900	44.718	
787.000	37.469	
787.100	14.588	
787.200	33.133	
787.300	38.242	
787.400	35.663	
787.500	29.674	
787.600	40.047	
787.700	47.479	
787.800	15.061	
787.900	28.866	
788.000	37.237	
788.100	48.439	
788.200	42.155	
788.300	35.795	
788.400	41.705	
788.500	40.285	
788.600	36.567	
788.700	43.187	
788.800	29.752	
788.900	34.988	
789.000	42.626	
789.100	43.070	
789.200	48.931	
789.300	38.219	
789.400	28.210	
789.500	39.157	
789.600	54.108	
789.700	47.211	
789.800	43.550	
789.900	41.831	
790.000	48.002	
790.100	50.230	
790.200	35.805	
790.300	38.027	
790.400	39.911	
790.500	44.749	
790.600	39.878	
790.700	48.927	
790.800	51.623	
790.900	47.393	
791.000	58.758	
791.100	43.419	
791.200	36.919	
791.300	48.979	
791.400	53.690	
791.500	45.630	
791.600	43.530	
791.700	28.330	
791.800	22.478	
791.900	39.038	
792.000	27.493	
792.100	26.050	
792.200	73.873	
792.300	61.878	
792.400	40.391	
792.500	67.241	
792.600	22.004	
792.700	41.958	
792.800	70.030	
792.900	34.379	
793.000	32.985	
793.100	32.619	
793.200	46.715	
793.300	36.842	
793.400	18.715	
793.500	60.657	
793.600	40.832	
793.700	41.968	
793.800	27.720	
793.900	39.725	
794.000	53.597	
794.100	30.753	
794.200	45.558	
794.300	57.108	
794.400	48.529	
794.500	51.833	
794.600	44.856	
794.700	47.313	
794.800	37.799	
794.900	32.918	
795.000	40.040	
795.100	56.317	
795.200	20.604	
795.300	32.048	
795.400	60.198	
795.500	54.110	
795.600	39.759	
795.700	55.230	
795.800	25.917	
795.900	52.912	
796.000	53.403	
796.100	32.875	
796.200	30.787	
796.300	41.383	
796.400	35.047	
796.500	41.612	
796.600	53.362	
796.700	40.901	
796.800	47.798	
796.900	27.777	
797.000	44.648	
797.100	42.851	
797.200	44.680	
797.300	46.937	
797.400	32.301	
797.500	36.584	
797.600	38.624	
797.700	47.392	
797.800	49.301	
797.900	55.175	
798.000	34.495	
798.100	52.433	
798.200	46.860	
798.300	52.405	
798.400	37.138	
798.500	25.348	
798.600	28.701	
798.700	60.778	
798.800	32.580	
798.900	28.330	
799.000	52.506	
799.100	47.206	
799.200	58.309	
799.300	51.706	
799.400	29.750	
799.500	26.562	
799.600	49.735	
799.700	41.443	
799.800	54.582	
799.900	24.484	
800.000	45.460	
