time /s	I /nA	
0.100	32.279	
0.200	23.199	
0.300	7.176	
0.400	-1.107	
0.500	8.554	
0.600	9.188	
0.700	7.514	
0.800	-8.770	
0.900	0.041	
1.000	16.217	
1.100	-0.638	
1.200	10.752	
1.300	3.248	
1.400	-10.572	
1.500	15.769	
1.600	1.945	
1.700	-3.657	
1.800	4.364	
1.900	11.645	
2.000	7.173	
2.100	-1.939	
2.200	-1.329	
2.300	17.820	
2.400	-7.009	
2.500	-6.877	
2.600	7.768	
2.700	9.032	
2.800	-6.778	
2.900	10.409	
3.000	0.530	
3.100	13.585	
3.200	-3.395	
3.300	3.374	
3.400	5.226	
3.500	17.600	
3.600	-7.318	
3.700	-3.901	
3.800	4.616	
3.900	2.784	
4.000	19.560	
4.100	8.882	
4.200	-10.802	
4.300	2.889	
4.400	6.778	
4.500	12.993	
4.600	-3.537	
4.700	3.039	
4.800	14.491	
4.900	33.472	
5.000	-7.270	
5.100	-0.367	
5.200	14.352	
5.300	-0.754	
5.400	23.523	
5.500	11.451	
5.600	-2.829	
5.700	4.923	
5.800	-16.314	
5.900	7.310	
6.000	-1.398	
6.100	9.155	
6.200	11.918	
6.300	11.407	
6.400	-2.924	
6.500	0.185	
6.600	2.025	
6.700	22.232	
6.800	1.844	
6.900	-1.195	
7.000	5.076	
7.100	-0.472	
7.200	7.852	
7.300	9.261	
7.400	-1.232	
7.500	-0.245	
7.600	9.601	
7.700	0.159	
7.800	20.973	
7.900	0.805	
8.000	12.997	
8.100	-1.186	
8.200	8.154	
8.300	1.665	
8.400	-0.615	
8.500	7.324	
8.600	2.357	
8.700	4.623	
8.800	-7.410	
8.900	9.604	
9.000	11.743	
9.100	10.713	
9.200	7.313	
9.300	3.831	
9.400	-2.747	
9.500	5.446	
9.600	-9.345	
9.700	17.307	
9.800	8.104	
9.900	2.541	
10.000	11.986	
10.100	1.036	
10.200	3.214	
10.300	1.621	
10.400	7.246	
10.500	8.263	
10.600	-16.915	
10.700	16.789	
10.800	-29.665	
10.900	2.727	
11.000	25.016	
11.100	-7.500	
11.200	7.532	
11.300	-5.530	
11.400	18.539	
11.500	0.163	
11.600	5.672	
11.700	12.264	
11.800	-0.287	
11.900	-4.878	
12.000	11.442	
12.100	14.722	
12.200	10.696	
12.300	6.230	
12.400	-4.366	
12.500	0.751	
12.600	14.671	
12.700	13.344	
12.800	8.114	
12.900	20.889	
13.000	-1.032	
13.100	16.373	
13.200	2.668	
13.300	11.266	
13.400	18.825	
13.500	7.160	
13.600	2.598	
13.700	14.296	
13.800	-7.060	
13.900	16.370	
14.000	3.508	
14.100	2.213	
14.200	1.335	
14.300	2.243	
14.400	-4.914	
14.500	-3.827	
14.600	-2.634	
14.700	17.576	
14.800	3.073	
14.900	-17.616	
15.000	-3.250	
15.100	19.920	
15.200	-9.889	
15.300	-0.380	
15.400	4.245	
15.500	6.056	
15.600	-5.942	
15.700	-3.634	
15.800	-3.920	
15.900	-2.153	
16.000	0.823	
16.100	12.701	
16.200	2.192	
16.300	-4.478	
16.400	1.971	
16.500	15.627	
16.600	-3.461	
16.700	23.425	
16.800	19.912	
16.900	-4.022	
17.000	-9.853	
17.100	23.042	
17.200	-1.683	
17.300	10.751	
17.400	-0.327	
17.500	12.925	
17.600	5.125	
17.700	3.412	
17.800	-15.576	
17.900	-5.112	
18.000	23.990	
18.100	7.594	
18.200	8.766	
18.300	9.824	
18.400	7.573	
18.500	-10.427	
18.600	16.075	
18.700	22.169	
18.800	-3.671	
18.900	-9.236	
19.000	-2.224	
19.100	-2.099	
19.200	15.495	
19.300	14.549	
19.400	2.387	
19.500	10.821	
19.600	2.191	
19.700	11.477	
19.800	8.291	
19.900	17.351	
20.000	12.975	
20.100	5.640	
20.200	2.849	
20.300	8.867	
20.400	20.549	
20.500	-9.154	
20.600	4.103	
20.700	-3.540	
20.800	-0.141	
20.900	21.151	
21.000	12.082	
21.100	-6.867	
21.200	10.083	
21.300	2.280	
21.400	14.387	
21.500	0.022	
21.600	2.920	
21.700	13.766	
21.800	6.676	
21.900	-12.742	
22.000	15.064	
22.100	7.458	
22.200	-13.853	
22.300	5.668	
22.400	-2.389	
22.500	-5.688	
22.600	1.591	
22.700	0.752	
22.800	12.616	
22.900	-0.293	
23.000	10.329	
23.100	14.434	
23.200	-9.077	
23.300	6.433	
23.400	0.229	
23.500	7.811	
23.600	8.381	
23.700	-7.007	
23.800	14.426	
23.900	15.255	
24.000	2.708	
24.100	8.852	
24.200	-1.039	
24.300	17.493	
24.400	5.457	
24.500	-6.850	
24.600	9.958	
24.700	-0.504	
24.800	6.624	
24.900	0.309	
25.000	7.404	
25.100	2.034	
25.200	6.571	
25.300	6.400	
25.400	5.125	
25.500	-0.007	
25.600	-2.637	
25.700	11.388	
25.800	18.757	
25.900	-2.700	
26.000	-1.889	
26.100	-10.715	
26.200	11.395	
26.300	16.247	
26.400	-0.432	
26.500	15.428	
26.600	14.423	
26.700	7.023	
26.800	33.159	
26.900	-6.436	
27.000	11.997	
27.100	1.379	
27.200	4.332	
27.300	11.924	
27.400	-5.243	
27.500	1.333	
27.600	6.155	
27.700	-5.241	
27.800	26.912	
27.900	14.640	
28.000	9.791	
28.100	-4.678	
28.200	-8.424	
28.300	-2.545	
28.400	-10.710	
28.500	6.895	
28.600	13.563	
28.700	1.692	
28.800	8.716	
28.900	3.900	
29.000	26.826	
29.100	7.369	
29.200	-2.141	
29.300	0.673	
29.400	7.560	
29.500	-3.885	
29.600	8.515	
29.700	-10.758	
29.800	-1.117	
29.900	25.622	
30.000	17.972	
30.100	25.913	
30.200	7.934	
30.300	-3.654	
30.400	16.001	
30.500	11.185	
30.600	3.782	
30.700	24.287	
30.800	20.834	
30.900	12.295	
31.000	18.635	
31.100	34.470	
31.200	25.619	
31.300	24.334	
31.400	29.204	
31.500	13.862	
31.600	32.428	
31.700	6.921	
31.800	29.074	
31.900	29.390	
32.000	25.082	
32.100	36.046	
32.200	23.117	
32.300	36.663	
32.400	27.647	
32.500	23.000	
32.600	34.636	
32.700	38.231	
32.800	37.129	
32.900	22.589	
33.000	45.407	
33.100	26.793	
33.200	30.645	
33.300	37.567	
33.400	50.244	
33.500	34.969	
33.600	31.854	
33.700	32.884	
33.800	31.460	
33.900	48.557	
34.000	41.629	
34.100	27.965	
34.200	43.877	
34.300	36.335	
34.400	39.923	
34.500	41.294	
34.600	42.518	
34.700	28.579	
34.800	41.648	
34.900	49.398	
35.000	37.682	
35.100	46.853	
35.200	25.367	
35.300	39.200	
35.400	33.623	
35.500	36.686	
35.600	38.115	
35.700	43.593	
35.800	42.808	
35.900	30.742	
36.000	25.758	
36.100	35.059	
36.200	34.435	
36.300	32.381	
36.400	35.667	
36.500	32.124	
36.600	25.056	
36.700	39.457	
36.800	36.448	
36.900	13.992	
37.000	28.092	
37.100	24.302	
37.200	39.890	
37.300	30.289	
37.400	15.659	
37.500	39.123	
37.600	46.228	
37.700	40.500	
37.800	40.576	
37.900	26.472	
38.000	28.122	
38.100	40.693	
38.200	31.371	
38.300	37.402	
38.400	49.805	
38.500	21.859	
38.600	25.040	
38.700	18.665	
38.800	46.942	
38.900	40.388	
39.000	35.357	
39.100	26.763	
39.200	25.654	
39.300	7.432	
39.400	23.037	
39.500	47.317	
39.600	31.705	
39.700	33.906	
39.800	30.696	
39.900	32.049	
40.000	23.794	
40.100	26.726	
40.200	55.525	
40.300	49.696	
40.400	27.195	
40.500	18.967	
40.600	18.943	
40.700	19.017	
40.800	31.781	
40.900	36.470	
41.000	22.767	
41.100	24.223	
41.200	27.503	
41.300	36.102	
41.400	38.968	
41.500	25.887	
41.600	23.947	
41.700	40.407	
41.800	18.989	
41.900	21.798	
42.000	39.526	
42.100	14.716	
42.200	5.435	
42.300	39.879	
42.400	36.077	
42.500	39.744	
42.600	20.017	
42.700	25.273	
42.800	20.362	
42.900	27.395	
43.000	33.472	
43.100	39.597	
43.200	45.546	
43.300	16.432	
43.400	26.523	
43.500	27.338	
43.600	9.245	
43.700	25.509	
43.800	27.494	
43.900	37.906	
44.000	30.988	
44.100	40.789	
44.200	35.985	
44.300	15.836	
44.400	22.355	
44.500	13.732	
44.600	15.828	
44.700	28.497	
44.800	41.254	
44.900	20.724	
45.000	20.768	
45.100	15.769	
45.200	34.976	
45.300	34.407	
45.400	25.301	
45.500	18.376	
45.600	13.801	
45.700	46.349	
45.800	27.769	
45.900	24.187	
46.000	15.886	
46.100	5.714	
46.200	45.342	
46.300	18.164	
46.400	15.683	
46.500	28.002	
46.600	27.515	
46.700	33.399	
46.800	25.304	
46.900	25.054	
47.000	16.148	
47.100	32.089	
47.200	10.937	
47.300	29.858	
47.400	28.130	
47.500	31.162	
47.600	30.975	
47.700	30.267	
47.800	20.765	
47.900	41.739	
48.000	29.692	
48.100	26.319	
48.200	27.630	
48.300	14.711	
48.400	30.543	
48.500	31.447	
48.600	21.246	
48.700	28.464	
48.800	25.714	
48.900	18.866	
49.000	33.897	
49.100	24.907	
49.200	22.616	
49.300	33.881	
49.400	11.971	
49.500	32.492	
49.600	19.915	
49.700	27.447	
49.800	13.383	
49.900	11.194	
50.000	27.947	
50.100	37.184	
50.200	27.983	
50.300	11.943	
50.400	21.117	
50.500	32.844	
50.600	19.928	
50.700	37.065	
50.800	33.760	
50.900	37.649	
51.000	30.462	
51.100	15.027	
51.200	24.556	
51.300	11.680	
51.400	27.839	
51.500	31.072	
51.600	30.422	
51.700	25.416	
51.800	28.078	
51.900	26.321	
52.000	28.245	
52.100	28.890	
52.200	36.766	
52.300	24.260	
52.400	26.169	
52.500	27.052	
52.600	23.742	
52.700	31.333	
52.800	27.805	
52.900	16.281	
53.000	31.375	
53.100	28.162	
53.200	26.209	
53.300	46.012	
53.400	25.332	
53.500	12.673	
53.600	34.352	
53.700	23.467	
53.800	40.256	
53.900	17.523	
54.000	32.416	
54.100	21.004	
54.200	23.405	
54.300	17.952	
54.400	40.933	
54.500	25.285	
54.600	40.715	
54.700	28.094	
54.800	14.692	
54.900	4.912	
55.000	39.923	
55.100	32.744	
55.200	29.032	
55.300	29.231	
55.400	10.010	
55.500	31.282	
55.600	35.371	
55.700	35.235	
55.800	29.317	
55.900	14.786	
56.000	26.690	
56.100	29.557	
56.200	37.205	
56.300	26.237	
56.400	31.051	
56.500	32.151	
56.600	28.404	
56.700	26.615	
56.800	30.025	
56.900	21.493	
57.000	28.906	
57.100	34.163	
57.200	34.374	
57.300	19.798	
57.400	11.395	
57.500	38.630	
57.600	18.361	
57.700	28.994	
57.800	35.288	
57.900	11.151	
58.000	32.869	
58.100	29.214	
58.200	16.992	
58.300	29.222	
58.400	30.219	
58.500	33.326	
58.600	34.805	
58.700	18.745	
58.800	19.317	
58.900	29.219	
59.000	23.337	
59.100	16.320	
59.200	44.381	
59.300	10.986	
59.400	19.862	
59.500	18.153	
59.600	42.273	
59.700	42.104	
59.800	35.697	
59.900	23.769	
60.000	30.216	
60.100	31.438	
60.200	22.443	
60.300	25.419	
60.400	15.009	
60.500	28.599	
60.600	33.093	
60.700	17.649	
60.800	51.302	
60.900	23.466	
61.000	6.624	
61.100	31.130	
61.200	28.304	
61.300	25.701	
61.400	38.225	
61.500	8.165	
61.600	32.856	
61.700	34.103	
61.800	24.222	
61.900	37.280	
62.000	22.920	
62.100	40.743	
62.200	23.950	
62.300	23.388	
62.400	35.264	
62.500	23.334	
62.600	18.696	
62.700	35.630	
62.800	18.431	
62.900	22.468	
63.000	27.618	
63.100	7.739	
63.200	38.883	
63.300	32.581	
63.400	30.990	
63.500	26.938	
63.600	25.844	
63.700	21.295	
63.800	24.914	
63.900	32.557	
64.000	35.721	
64.100	37.486	
64.200	17.827	
64.300	16.873	
64.400	33.300	
64.500	32.213	
64.600	26.283	
64.700	19.112	
64.800	27.300	
64.900	18.437	
65.000	30.767	
65.100	-3.545	
65.200	19.431	
65.300	43.848	
65.400	33.303	
65.500	3.446	
65.600	28.512	
65.700	24.837	
65.800	43.641	
65.900	33.405	
66.000	10.704	
66.100	35.636	
66.200	13.269	
66.300	27.153	
66.400	24.196	
66.500	24.997	
66.600	28.161	
66.700	36.888	
66.800	31.534	
66.900	17.851	
67.000	27.502	
67.100	30.295	
67.200	23.472	
67.300	27.364	
67.400	37.005	
67.500	11.137	
67.600	14.329	
67.700	24.492	
67.800	38.924	
67.900	30.519	
68.000	29.668	
68.100	32.401	
68.200	31.987	
68.300	33.234	
68.400	7.172	
68.500	18.897	
68.600	23.741	
68.700	32.157	
68.800	19.219	
68.900	26.570	
69.000	33.848	
69.100	26.157	
69.200	13.874	
69.300	36.969	
69.400	28.551	
69.500	31.683	
69.600	27.073	
69.700	15.757	
69.800	32.732	
69.900	31.876	
70.000	28.551	
70.100	23.758	
70.200	48.849	
70.300	32.923	
70.400	29.047	
70.500	16.016	
70.600	32.497	
70.700	26.418	
70.800	9.669	
70.900	39.389	
71.000	18.260	
71.100	11.375	
71.200	28.434	
71.300	38.789	
71.400	23.013	
71.500	32.508	
71.600	25.590	
71.700	27.212	
71.800	20.240	
71.900	23.419	
72.000	42.972	
72.100	28.506	
72.200	41.207	
72.300	14.281	
72.400	12.431	
72.500	28.911	
72.600	22.471	
72.700	29.308	
72.800	15.419	
72.900	22.059	
73.000	27.426	
73.100	30.784	
73.200	23.751	
73.300	24.700	
73.400	27.511	
73.500	32.277	
73.600	26.681	
73.700	25.045	
73.800	30.036	
73.900	17.334	
74.000	18.872	
74.100	23.162	
74.200	8.587	
74.300	15.000	
74.400	32.750	
74.500	39.879	
74.600	13.960	
74.700	39.850	
74.800	18.003	
74.900	19.178	
75.000	30.309	
75.100	29.076	
75.200	32.862	
75.300	32.775	
75.400	18.271	
75.500	37.483	
75.600	20.238	
75.700	25.247	
75.800	12.537	
75.900	27.850	
76.000	21.814	
76.100	30.138	
76.200	37.378	
76.300	23.624	
76.400	20.369	
76.500	26.750	
76.600	25.646	
76.700	46.253	
76.800	22.780	
76.900	20.968	
77.000	41.410	
77.100	25.774	
77.200	17.276	
77.300	25.281	
77.400	7.822	
77.500	39.478	
77.600	34.659	
77.700	23.614	
77.800	42.272	
77.900	19.627	
78.000	22.980	
78.100	37.503	
78.200	38.172	
78.300	23.034	
78.400	32.948	
78.500	13.707	
78.600	33.907	
78.700	21.430	
78.800	32.823	
78.900	31.932	
79.000	31.444	
79.100	23.878	
79.200	29.581	
79.300	10.949	
79.400	22.444	
79.500	33.407	
79.600	43.164	
79.700	24.920	
79.800	20.317	
79.900	26.238	
80.000	17.863	
80.100	29.335	
80.200	29.837	
80.300	42.543	
80.400	8.640	
80.500	9.159	
80.600	19.154	
80.700	28.054	
80.800	26.454	
80.900	26.163	
81.000	21.618	
81.100	38.735	
81.200	23.805	
81.300	3.803	
81.400	17.596	
81.500	20.075	
81.600	26.560	
81.700	22.457	
81.800	27.143	
81.900	29.747	
82.000	27.258	
82.100	31.529	
82.200	24.815	
82.300	17.792	
82.400	31.580	
82.500	34.950	
82.600	15.458	
82.700	32.052	
82.800	26.707	
82.900	28.132	
83.000	26.587	
83.100	23.597	
83.200	19.217	
83.300	46.378	
83.400	1.256	
83.500	14.592	
83.600	60.684	
83.700	26.429	
83.800	34.794	
83.900	30.654	
84.000	30.353	
84.100	28.460	
84.200	14.194	
84.300	14.457	
84.400	26.999	
84.500	21.657	
84.600	21.276	
84.700	17.530	
84.800	28.977	
84.900	29.488	
85.000	19.606	
85.100	32.168	
85.200	25.989	
85.300	7.538	
85.400	17.217	
85.500	16.281	
85.600	7.904	
85.700	34.521	
85.800	37.640	
85.900	25.890	
86.000	28.727	
86.100	39.935	
86.200	26.888	
86.300	25.620	
86.400	18.423	
86.500	31.868	
86.600	22.459	
86.700	40.479	
86.800	34.923	
86.900	15.591	
87.000	22.842	
87.100	39.381	
87.200	37.553	
87.300	22.251	
87.400	16.902	
87.500	29.245	
87.600	17.697	
87.700	12.510	
87.800	33.383	
87.900	17.639	
88.000	26.648	
88.100	32.638	
88.200	26.067	
88.300	28.649	
88.400	12.553	
88.500	39.793	
88.600	10.255	
88.700	21.424	
88.800	22.416	
88.900	17.386	
89.000	32.294	
89.100	19.470	
89.200	13.849	
89.300	36.423	
89.400	22.974	
89.500	19.654	
89.600	30.790	
89.700	22.300	
89.800	24.465	
89.900	32.531	
90.000	16.755	
90.100	19.762	
90.200	32.985	
90.300	45.568	
90.400	35.078	
90.500	29.454	
90.600	-1.985	
90.700	12.832	
90.800	16.412	
90.900	13.485	
91.000	25.843	
91.100	17.385	
91.200	14.504	
91.300	27.019	
91.400	8.056	
91.500	9.381	
91.600	16.842	
91.700	24.149	
91.800	18.629	
91.900	25.500	
92.000	12.594	
92.100	6.451	
92.200	5.811	
92.300	8.523	
92.400	18.760	
92.500	13.109	
92.600	3.879	
92.700	17.377	
92.800	14.031	
92.900	5.860	
93.000	14.095	
93.100	-0.614	
93.200	-0.374	
93.300	12.040	
93.400	19.238	
93.500	22.034	
93.600	13.413	
93.700	15.331	
93.800	-3.743	
93.900	7.486	
94.000	24.309	
94.100	-11.798	
94.200	-0.472	
94.300	13.839	
94.400	2.725	
94.500	12.937	
94.600	4.028	
94.700	12.650	
94.800	-1.554	
94.900	5.101	
95.000	14.727	
95.100	-11.555	
95.200	6.428	
95.300	-5.585	
95.400	27.591	
95.500	-7.546	
95.600	-6.169	
95.700	7.498	
95.800	3.508	
95.900	4.386	
96.000	-0.938	
96.100	16.464	
96.200	-0.490	
96.300	12.109	
96.400	0.735	
96.500	-5.233	
96.600	13.745	
96.700	-2.781	
96.800	-2.803	
96.900	-15.112	
97.000	-0.754	
97.100	17.184	
97.200	-12.010	
97.300	11.149	
97.400	-2.625	
97.500	1.276	
97.600	-1.588	
97.700	-2.711	
97.800	-13.651	
97.900	-12.515	
98.000	-0.792	
98.100	-5.865	
98.200	-5.228	
98.300	2.430	
98.400	3.069	
98.500	8.290	
98.600	-21.290	
98.700	-6.866	
98.800	1.313	
98.900	-9.434	
99.000	-4.003	
99.100	-23.184	
99.200	8.578	
99.300	-15.053	
99.400	4.691	
99.500	-1.934	
99.600	-3.639	
99.700	1.186	
99.800	-24.384	
99.900	-12.947	
100.000	0.802	
100.100	-15.019	
100.200	-8.961	
100.300	-8.789	
100.400	-3.897	
100.500	2.935	
100.600	5.594	
100.700	-3.702	
100.800	-13.184	
100.900	-9.944	
101.000	-21.610	
101.100	-3.585	
101.200	-12.006	
101.300	-20.399	
101.400	-25.121	
101.500	-3.565	
101.600	-1.072	
101.700	-9.377	
101.800	-19.401	
101.900	-11.617	
102.000	-11.628	
102.100	-17.597	
102.200	-6.971	
102.300	-6.274	
102.400	-15.822	
102.500	-10.526	
102.600	-26.386	
102.700	12.271	
102.800	-25.902	
102.900	-12.512	
103.000	-16.001	
103.100	-0.191	
103.200	-13.181	
103.300	-13.843	
103.400	-21.768	
103.500	3.142	
103.600	-16.619	
103.700	-7.825	
103.800	-18.564	
103.900	-7.519	
104.000	-13.071	
104.100	-21.004	
104.200	-10.388	
104.300	-5.661	
104.400	-7.409	
104.500	-6.737	
104.600	-10.558	
104.700	-15.209	
104.800	-6.269	
104.900	-10.202	
105.000	-20.584	
105.100	-17.753	
105.200	4.021	
105.300	-7.692	
105.400	-18.076	
105.500	-14.453	
105.600	-28.770	
105.700	-16.030	
105.800	-13.127	
105.900	-15.564	
106.000	-14.431	
106.100	-18.809	
106.200	-22.915	
106.300	-6.008	
106.400	-28.288	
106.500	-1.845	
106.600	-19.381	
106.700	-20.623	
106.800	-21.904	
106.900	-17.523	
107.000	-21.231	
107.100	-8.557	
107.200	-20.384	
107.300	-31.844	
107.400	-6.336	
107.500	-19.809	
107.600	-13.184	
107.700	-4.143	
107.800	-12.637	
107.900	12.809	
108.000	-10.342	
108.100	-20.101	
108.200	-30.832	
108.300	-9.117	
108.400	-3.534	
108.500	-1.747	
108.600	-7.298	
108.700	-20.604	
108.800	1.524	
108.900	-6.640	
109.000	-7.888	
109.100	-13.516	
109.200	-21.598	
109.300	-9.701	
109.400	-18.159	
109.500	-21.045	
109.600	8.499	
109.700	-8.899	
109.800	-5.914	
109.900	-24.590	
110.000	-0.843	
110.100	-23.654	
110.200	-14.147	
110.300	5.672	
110.400	-11.406	
110.500	-24.729	
110.600	-25.050	
110.700	-22.440	
110.800	-3.727	
110.900	-4.252	
111.000	-25.799	
111.100	-11.303	
111.200	-14.349	
111.300	-18.441	
111.400	-26.480	
111.500	-4.975	
111.600	-9.625	
111.700	-5.724	
111.800	-16.694	
111.900	-11.111	
112.000	-7.896	
112.100	-25.956	
112.200	-22.634	
112.300	-7.041	
112.400	-5.714	
112.500	-2.001	
112.600	-11.873	
112.700	-28.959	
112.800	-8.148	
112.900	-0.833	
113.000	-15.233	
113.100	-21.786	
113.200	-8.546	
113.300	-11.442	
113.400	-18.132	
113.500	-13.145	
113.600	-10.340	
113.700	-17.267	
113.800	-13.161	
113.900	-9.595	
114.000	-8.248	
114.100	-18.416	
114.200	-18.838	
114.300	-11.168	
114.400	-16.883	
114.500	-6.736	
114.600	-14.896	
114.700	-4.721	
114.800	-13.832	
114.900	-26.078	
115.000	-6.133	
115.100	-20.298	
115.200	-9.811	
115.300	-10.071	
115.400	-22.563	
115.500	-4.813	
115.600	-9.186	
115.700	-7.343	
115.800	-3.480	
115.900	-9.995	
116.000	-1.692	
116.100	-17.429	
116.200	-5.423	
116.300	-10.152	
116.400	-11.879	
116.500	-15.070	
116.600	-20.216	
116.700	-6.386	
116.800	-2.985	
116.900	-17.799	
117.000	-24.892	
117.100	-17.219	
117.200	10.304	
117.300	-14.599	
117.400	2.639	
117.500	-16.017	
117.600	-17.500	
117.700	-0.998	
117.800	-13.178	
117.900	-21.838	
118.000	-14.350	
118.100	-4.760	
118.200	-15.526	
118.300	-7.074	
118.400	-16.293	
118.500	-25.778	
118.600	10.899	
118.700	-6.435	
118.800	-15.564	
118.900	-23.383	
119.000	5.383	
119.100	-11.592	
119.200	-15.302	
119.300	-11.803	
119.400	-19.671	
119.500	-14.010	
119.600	-13.080	
119.700	-12.543	
119.800	-17.818	
119.900	-4.762	
120.000	2.093	
120.100	-5.368	
120.200	-5.990	
120.300	-18.051	
120.400	-13.396	
120.500	-16.953	
120.600	0.828	
120.700	-20.597	
120.800	-24.839	
120.900	-19.552	
121.000	-22.545	
121.100	1.800	
121.200	-15.335	
121.300	-15.526	
121.400	-4.927	
121.500	-14.891	
121.600	-0.954	
121.700	0.862	
121.800	-9.712	
121.900	-4.656	
122.000	-15.319	
122.100	-16.289	
122.200	-21.662	
122.300	-1.859	
122.400	2.386	
122.500	-9.109	
122.600	-26.695	
122.700	-15.447	
122.800	6.944	
122.900	2.910	
123.000	-28.732	
123.100	-32.104	
123.200	-41.618	
123.300	-1.722	
123.400	-11.418	
123.500	-7.832	
123.600	-7.172	
123.700	-31.099	
123.800	-13.688	
123.900	-18.006	
124.000	-1.336	
124.100	-8.584	
124.200	-11.344	
124.300	-12.213	
124.400	-17.985	
124.500	-15.626	
124.600	-17.057	
124.700	-22.553	
124.800	1.569	
124.900	-7.399	
125.000	-13.457	
125.100	4.150	
125.200	-24.011	
125.300	-7.966	
125.400	-24.111	
125.500	-29.691	
125.600	-2.416	
125.700	-3.002	
125.800	-9.166	
125.900	-8.017	
126.000	8.998	
126.100	2.107	
126.200	-18.716	
126.300	-28.342	
126.400	-13.066	
126.500	-20.746	
126.600	-20.657	
126.700	-8.136	
126.800	-9.984	
126.900	-5.180	
127.000	-3.705	
127.100	-3.820	
127.200	-16.188	
127.300	-17.279	
127.400	-5.716	
127.500	0.048	
127.600	-20.189	
127.700	7.568	
127.800	-7.023	
127.900	-4.289	
128.000	-2.829	
128.100	0.100	
128.200	-22.421	
128.300	-11.522	
128.400	-5.423	
128.500	-7.070	
128.600	-6.344	
128.700	-0.848	
128.800	-5.938	
128.900	-10.022	
129.000	-19.568	
129.100	-1.556	
129.200	-13.613	
129.300	-2.467	
129.400	-25.395	
129.500	-10.548	
129.600	-13.945	
129.700	-3.357	
129.800	-18.488	
129.900	-14.875	
130.000	-0.715	
130.100	0.088	
130.200	-15.515	
130.300	6.917	
130.400	-11.725	
130.500	-20.609	
130.600	-2.635	
130.700	-9.941	
130.800	-27.017	
130.900	-9.161	
131.000	6.059	
131.100	3.164	
131.200	-16.940	
131.300	-14.082	
131.400	-16.476	
131.500	-2.274	
131.600	-15.674	
131.700	-9.208	
131.800	-12.589	
131.900	-3.571	
132.000	-3.220	
132.100	-13.404	
132.200	-9.582	
132.300	-4.740	
132.400	-15.404	
132.500	-5.591	
132.600	11.356	
132.700	-22.043	
132.800	7.650	
132.900	-7.213	
133.000	-9.330	
133.100	-5.232	
133.200	-18.606	
133.300	-15.928	
133.400	-9.789	
133.500	8.063	
133.600	-11.477	
133.700	-12.296	
133.800	8.635	
133.900	-11.954	
134.000	-3.634	
134.100	-7.356	
134.200	-9.970	
134.300	-15.347	
134.400	-15.846	
134.500	-24.358	
134.600	0.311	
134.700	-15.084	
134.800	-9.031	
134.900	-3.854	
135.000	-5.128	
135.100	-5.354	
135.200	-25.033	
135.300	1.605	
135.400	1.635	
135.500	-18.956	
135.600	-16.283	
135.700	-5.482	
135.800	-14.446	
135.900	-29.411	
136.000	-13.128	
136.100	6.856	
136.200	-9.344	
136.300	3.692	
136.400	-15.430	
136.500	-28.345	
136.600	-5.346	
136.700	-12.060	
136.800	-6.624	
136.900	-8.293	
137.000	-9.952	
137.100	-0.686	
137.200	-8.688	
137.300	-11.594	
137.400	-11.335	
137.500	-8.085	
137.600	-6.353	
137.700	-3.954	
137.800	-1.732	
137.900	-21.618	
138.000	-3.206	
138.100	-15.336	
138.200	-4.304	
138.300	-17.250	
138.400	-8.622	
138.500	-4.306	
138.600	-12.204	
138.700	-8.167	
138.800	-14.470	
138.900	-19.797	
139.000	-12.802	
139.100	-6.399	
139.200	-6.958	
139.300	0.146	
139.400	-3.771	
139.500	-27.509	
139.600	-5.978	
139.700	-5.687	
139.800	8.109	
139.900	-31.281	
140.000	-16.961	
140.100	-15.119	
140.200	-14.748	
140.300	4.263	
140.400	-26.093	
140.500	-12.757	
140.600	-6.146	
140.700	-8.986	
140.800	-11.436	
140.900	-18.365	
141.000	-5.847	
141.100	-17.085	
141.200	-17.337	
141.300	0.339	
141.400	-2.629	
141.500	-14.035	
141.600	-17.625	
141.700	21.145	
141.800	-3.167	
141.900	-11.517	
142.000	-2.772	
142.100	-13.691	
142.200	-5.243	
142.300	-8.107	
142.400	-28.032	
142.500	-3.631	
142.600	0.933	
142.700	7.554	
142.800	-13.498	
142.900	-3.514	
143.000	-1.229	
143.100	-15.174	
143.200	1.918	
143.300	3.791	
143.400	-6.894	
143.500	-24.319	
143.600	-4.202	
143.700	-13.517	
143.800	-4.035	
143.900	-8.869	
144.000	-3.234	
144.100	-21.317	
144.200	-25.524	
144.300	1.580	
144.400	-10.215	
144.500	-4.320	
144.600	-19.649	
144.700	-10.760	
144.800	1.093	
144.900	-22.610	
145.000	-5.583	
145.100	7.247	
145.200	-14.298	
145.300	5.330	
145.400	-20.116	
145.500	1.017	
145.600	-7.987	
145.700	-8.348	
145.800	-5.673	
145.900	5.975	
146.000	-0.577	
146.100	-8.325	
146.200	-6.107	
146.300	0.922	
146.400	2.546	
146.500	-12.775	
146.600	-12.361	
146.700	2.185	
146.800	2.525	
146.900	-6.473	
147.000	10.109	
147.100	-2.066	
147.200	-9.284	
147.300	13.526	
147.400	-12.450	
147.500	-1.913	
147.600	-14.603	
147.700	-19.473	
147.800	-7.791	
147.900	-16.207	
148.000	5.386	
148.100	4.455	
148.200	-15.964	
148.300	-26.488	
148.400	-0.275	
148.500	1.456	
148.600	-8.915	
148.700	6.839	
148.800	-19.167	
148.900	-4.900	
149.000	-13.404	
149.100	-4.154	
149.200	-12.361	
149.300	-4.623	
149.400	3.034	
149.500	-34.914	
149.600	-15.992	
149.700	13.957	
149.800	-14.875	
149.900	-4.364	
150.000	-3.932	
150.100	1.845	
150.200	7.327	
150.300	-0.064	
150.400	-23.896	
150.500	-14.654	
150.600	-20.634	
150.700	-4.357	
150.800	-15.336	
150.900	11.460	
151.000	13.183	
151.100	0.729	
151.200	-5.177	
151.300	-0.863	
151.400	-7.621	
151.500	6.082	
151.600	12.617	
151.700	-3.334	
151.800	0.632	
151.900	-5.230	
152.000	-12.510	
152.100	-2.958	
152.200	-14.509	
152.300	4.330	
152.400	-15.363	
152.500	-8.442	
152.600	-8.288	
152.700	2.337	
152.800	-3.230	
152.900	3.125	
153.000	-18.811	
153.100	3.204	
153.200	-20.291	
153.300	-1.838	
153.400	-1.067	
153.500	9.062	
153.600	-28.057	
153.700	-1.069	
153.800	5.051	
153.900	-19.237	
154.000	5.790	
154.100	-16.764	
154.200	-12.984	
154.300	-12.641	
154.400	-14.933	
154.500	0.682	
154.600	-5.745	
154.700	9.165	
154.800	-7.102	
154.900	-16.536	
155.000	-7.044	
155.100	-9.877	
155.200	-12.788	
155.300	-12.171	
155.400	-10.769	
155.500	1.316	
155.600	-6.066	
155.700	-11.068	
155.800	-15.696	
155.900	-7.403	
156.000	4.394	
156.100	8.244	
156.200	-7.529	
156.300	11.252	
156.400	-16.135	
156.500	-25.457	
156.600	-4.958	
156.700	2.559	
156.800	10.021	
156.900	-1.196	
157.000	-22.850	
157.100	-7.529	
157.200	-4.911	
157.300	-7.850	
157.400	-9.049	
157.500	-3.669	
157.600	-5.590	
157.700	8.321	
157.800	6.974	
157.900	-19.063	
158.000	-7.983	
158.100	-13.283	
158.200	-8.375	
158.300	0.509	
158.400	-13.370	
158.500	-5.618	
158.600	-13.400	
158.700	6.278	
158.800	3.458	
158.900	-19.176	
159.000	-9.470	
159.100	9.199	
159.200	-13.560	
159.300	2.868	
159.400	-3.918	
159.500	-23.935	
159.600	11.507	
159.700	-5.862	
159.800	-12.002	
159.900	-20.414	
160.000	13.425	
160.100	-9.188	
160.200	4.797	
160.300	-16.404	
160.400	-6.161	
160.500	-2.444	
160.600	-0.446	
160.700	-3.494	
160.800	-10.564	
160.900	2.819	
161.000	2.351	
161.100	0.224	
161.200	-4.690	
161.300	-10.394	
161.400	-15.843	
161.500	4.564	
161.600	-9.844	
161.700	-17.543	
161.800	-6.230	
161.900	-7.619	
162.000	-16.262	
162.100	-8.976	
162.200	-10.614	
162.300	-3.574	
162.400	3.526	
162.500	-4.780	
162.600	-6.708	
162.700	1.689	
162.800	-13.633	
162.900	-2.390	
163.000	-3.023	
163.100	8.161	
163.200	-1.376	
163.300	-8.486	
163.400	-5.612	
163.500	-10.773	
163.600	-4.857	
163.700	-7.917	
163.800	4.580	
163.900	-2.353	
164.000	-10.592	
164.100	9.726	
164.200	-3.655	
164.300	4.364	
164.400	12.048	
164.500	-13.464	
164.600	-8.791	
164.700	-16.680	
164.800	12.650	
164.900	-16.397	
165.000	10.739	
165.100	-5.404	
165.200	6.309	
165.300	10.133	
165.400	2.824	
165.500	-7.518	
165.600	-15.477	
165.700	-8.173	
165.800	-20.965	
165.900	10.765	
166.000	-6.304	
166.100	-8.769	
166.200	-10.922	
166.300	4.483	
166.400	-22.013	
166.500	13.120	
166.600	-1.870	
166.700	8.247	
166.800	-3.372	
166.900	-4.683	
167.000	2.695	
167.100	-15.461	
167.200	-10.943	
167.300	-2.563	
167.400	5.278	
167.500	2.789	
167.600	-12.377	
167.700	-2.635	
167.800	0.425	
167.900	-4.942	
168.000	3.702	
168.100	-5.169	
168.200	-12.979	
168.300	3.070	
168.400	-7.186	
168.500	-6.481	
168.600	21.176	
168.700	-23.251	
168.800	2.245	
168.900	8.960	
169.000	7.099	
169.100	-13.103	
169.200	-6.167	
169.300	-6.729	
169.400	-17.499	
169.500	7.924	
169.600	-5.632	
169.700	-3.327	
169.800	1.617	
169.900	-11.897	
170.000	-18.161	
170.100	-4.487	
170.200	-10.535	
170.300	-0.244	
170.400	-10.350	
170.500	-3.944	
170.600	0.918	
170.700	8.256	
170.800	1.318	
170.900	-9.401	
171.000	16.846	
171.100	-12.706	
171.200	-12.452	
171.300	-7.744	
171.400	-6.615	
171.500	-4.931	
171.600	-11.937	
171.700	-7.916	
171.800	2.924	
171.900	15.200	
172.000	4.004	
172.100	5.103	
172.200	3.341	
172.300	-19.116	
172.400	-5.433	
172.500	1.539	
172.600	-9.113	
172.700	14.094	
172.800	-17.398	
172.900	-12.191	
173.000	-5.009	
173.100	6.479	
173.200	-8.902	
173.300	-7.697	
173.400	-5.669	
173.500	-17.698	
173.600	19.049	
173.700	1.857	
173.800	-23.853	
173.900	-7.913	
174.000	13.423	
174.100	-3.637	
174.200	19.487	
174.300	-21.149	
174.400	-3.113	
174.500	-13.394	
174.600	9.373	
174.700	-5.989	
174.800	-11.190	
174.900	-1.971	
175.000	1.401	
175.100	14.961	
175.200	-15.318	
175.300	-11.940	
175.400	9.783	
175.500	-6.413	
175.600	0.545	
175.700	5.835	
175.800	6.685	
175.900	-4.031	
176.000	-13.648	
176.100	9.524	
176.200	3.297	
176.300	-3.780	
176.400	-5.690	
176.500	-19.261	
176.600	-8.207	
176.700	10.407	
176.800	-8.105	
176.900	-6.480	
177.000	0.504	
177.100	-5.919	
177.200	-5.061	
177.300	-14.374	
177.400	9.266	
177.500	3.024	
177.600	7.509	
177.700	-2.659	
177.800	-7.415	
177.900	-0.395	
178.000	-2.825	
178.100	9.976	
178.200	-0.467	
178.300	-12.268	
178.400	4.957	
178.500	-3.382	
178.600	-15.406	
178.700	4.323	
178.800	-8.717	
178.900	-3.606	
179.000	-1.575	
179.100	1.756	
179.200	-20.814	
179.300	1.222	
179.400	3.103	
179.500	16.993	
179.600	5.564	
179.700	-18.956	
179.800	11.782	
179.900	-13.302	
180.000	-3.539	
180.100	11.735	
180.200	4.744	
180.300	11.634	
180.400	1.173	
180.500	9.010	
180.600	12.438	
180.700	3.532	
180.800	13.796	
180.900	15.615	
181.000	14.083	
181.100	23.133	
181.200	-5.566	
181.300	1.450	
181.400	26.290	
181.500	19.897	
181.600	15.625	
181.700	20.143	
181.800	29.770	
181.900	4.435	
182.000	26.810	
182.100	23.734	
182.200	3.387	
182.300	22.680	
182.400	25.318	
182.500	31.901	
182.600	31.805	
182.700	7.673	
182.800	9.453	
182.900	37.242	
183.000	32.631	
183.100	27.380	
183.200	40.797	
183.300	28.384	
183.400	17.793	
183.500	31.215	
183.600	14.823	
183.700	33.786	
183.800	27.655	
183.900	42.673	
184.000	34.613	
184.100	27.964	
184.200	34.915	
184.300	43.180	
184.400	31.920	
184.500	24.962	
184.600	34.783	
184.700	31.033	
184.800	30.190	
184.900	40.946	
185.000	33.043	
185.100	21.142	
185.200	38.729	
185.300	36.452	
185.400	33.062	
185.500	22.913	
185.600	23.998	
185.700	28.710	
185.800	22.831	
185.900	32.697	
186.000	32.679	
186.100	24.547	
186.200	36.659	
186.300	31.992	
186.400	35.256	
186.500	41.164	
186.600	19.438	
186.700	24.861	
186.800	28.169	
186.900	18.594	
187.000	30.866	
187.100	42.304	
187.200	17.242	
187.300	36.882	
187.400	42.861	
187.500	14.869	
187.600	16.738	
187.700	23.150	
187.800	42.237	
187.900	41.221	
188.000	15.141	
188.100	15.448	
188.200	21.844	
188.300	53.387	
188.400	24.513	
188.500	44.407	
188.600	24.368	
188.700	22.261	
188.800	33.538	
188.900	33.350	
189.000	23.438	
189.100	30.305	
189.200	30.961	
189.300	32.090	
189.400	14.199	
189.500	1.748	
189.600	23.535	
189.700	23.070	
189.800	48.224	
189.900	17.214	
190.000	31.190	
190.100	28.338	
190.200	27.706	
190.300	17.340	
190.400	19.669	
190.500	29.798	
190.600	35.433	
190.700	14.588	
190.800	35.418	
190.900	13.680	
191.000	43.702	
191.100	19.475	
191.200	15.008	
191.300	20.107	
191.400	29.261	
191.500	20.426	
191.600	25.113	
191.700	34.294	
191.800	32.915	
191.900	17.492	
192.000	26.280	
192.100	29.362	
192.200	32.547	
192.300	20.191	
192.400	21.635	
192.500	24.725	
192.600	17.145	
192.700	27.723	
192.800	13.198	
192.900	13.264	
193.000	17.070	
193.100	30.439	
193.200	13.870	
193.300	43.787	
193.400	25.932	
193.500	21.510	
193.600	32.644	
193.700	31.292	
193.800	36.245	
193.900	17.745	
194.000	18.945	
194.100	17.729	
194.200	21.626	
194.300	25.803	
194.400	35.708	
194.500	29.980	
194.600	36.474	
194.700	24.123	
194.800	10.991	
194.900	46.855	
195.000	24.187	
195.100	24.287	
195.200	6.686	
195.300	27.635	
195.400	4.560	
195.500	36.271	
195.600	18.072	
195.700	23.568	
195.800	19.847	
195.900	45.639	
196.000	30.854	
196.100	34.045	
196.200	29.920	
196.300	20.443	
196.400	22.808	
196.500	28.484	
196.600	19.604	
196.700	7.177	
196.800	26.624	
196.900	29.890	
197.000	19.492	
197.100	33.315	
197.200	28.106	
197.300	45.277	
197.400	24.902	
197.500	38.702	
197.600	27.470	
197.700	13.868	
197.800	17.286	
197.900	29.440	
198.000	21.955	
198.100	19.252	
198.200	14.473	
198.300	29.326	
198.400	26.019	
198.500	12.922	
198.600	20.064	
198.700	29.227	
198.800	21.963	
198.900	33.796	
199.000	29.272	
199.100	20.210	
199.200	10.416	
199.300	14.414	
199.400	31.918	
199.500	19.561	
199.600	32.048	
199.700	30.438	
199.800	18.344	
199.900	31.467	
200.000	33.123	
200.100	-4.482	
200.200	23.140	
200.300	48.052	
200.400	30.371	
200.500	19.270	
200.600	26.604	
200.700	31.290	
200.800	23.927	
200.900	22.566	
201.000	6.619	
201.100	38.921	
201.200	22.110	
201.300	20.350	
201.400	18.334	
201.500	26.592	
201.600	7.853	
201.700	37.032	
201.800	35.394	
201.900	20.278	
202.000	22.815	
202.100	14.712	
202.200	26.707	
202.300	42.188	
202.400	23.398	
202.500	31.094	
202.600	36.051	
202.700	17.241	
202.800	31.482	
202.900	23.632	
203.000	19.178	
203.100	4.831	
203.200	30.101	
203.300	14.793	
203.400	44.680	
203.500	20.225	
203.600	35.926	
203.700	15.085	
203.800	23.896	
203.900	19.356	
204.000	33.203	
204.100	25.288	
204.200	14.020	
204.300	28.522	
204.400	9.113	
204.500	10.325	
204.600	35.640	
204.700	27.238	
204.800	24.207	
204.900	42.085	
205.000	24.074	
205.100	27.501	
205.200	17.166	
205.300	22.550	
205.400	5.752	
205.500	28.720	
205.600	20.692	
205.700	32.633	
205.800	22.925	
205.900	21.150	
206.000	21.755	
206.100	21.983	
206.200	23.840	
206.300	29.660	
206.400	27.414	
206.500	19.853	
206.600	8.009	
206.700	18.943	
206.800	47.530	
206.900	26.650	
207.000	28.085	
207.100	25.876	
207.200	13.728	
207.300	22.629	
207.400	30.871	
207.500	20.078	
207.600	34.805	
207.700	16.869	
207.800	36.327	
207.900	2.884	
208.000	22.191	
208.100	21.352	
208.200	36.701	
208.300	35.523	
208.400	11.881	
208.500	18.346	
208.600	31.526	
208.700	18.745	
208.800	30.513	
208.900	13.371	
209.000	29.920	
209.100	40.108	
209.200	15.122	
209.300	25.843	
209.400	36.443	
209.500	21.290	
209.600	28.207	
209.700	11.431	
209.800	26.544	
209.900	1.125	
210.000	17.046	
210.100	31.973	
210.200	29.877	
210.300	19.893	
210.400	28.520	
210.500	33.223	
210.600	13.771	
210.700	26.616	
210.800	20.194	
210.900	18.801	
211.000	9.722	
211.100	17.696	
211.200	16.875	
211.300	19.905	
211.400	28.279	
211.500	36.996	
211.600	18.869	
211.700	29.585	
211.800	38.202	
211.900	11.350	
212.000	6.907	
212.100	21.096	
212.200	18.112	
212.300	24.010	
212.400	20.343	
212.500	16.355	
212.600	30.177	
212.700	31.547	
212.800	29.975	
212.900	22.361	
213.000	10.691	
213.100	14.226	
213.200	33.084	
213.300	23.479	
213.400	25.824	
213.500	31.562	
213.600	22.204	
213.700	5.759	
213.800	30.014	
213.900	25.631	
214.000	20.725	
214.100	3.082	
214.200	36.506	
214.300	41.794	
214.400	34.406	
214.500	13.020	
214.600	28.625	
214.700	19.320	
214.800	10.989	
214.900	28.190	
215.000	39.562	
215.100	25.306	
215.200	31.381	
215.300	17.594	
215.400	30.697	
215.500	31.811	
215.600	21.247	
215.700	18.300	
215.800	29.957	
215.900	26.384	
216.000	27.031	
216.100	22.681	
216.200	9.801	
216.300	20.599	
216.400	23.327	
216.500	6.217	
216.600	51.641	
216.700	22.743	
216.800	12.196	
216.900	16.865	
217.000	31.210	
217.100	28.091	
217.200	29.463	
217.300	22.629	
217.400	26.933	
217.500	7.966	
217.600	29.309	
217.700	25.620	
217.800	22.474	
217.900	25.300	
218.000	25.658	
218.100	25.473	
218.200	17.688	
218.300	27.393	
218.400	29.040	
218.500	24.529	
218.600	22.272	
218.700	31.134	
218.800	10.132	
218.900	18.845	
219.000	26.521	
219.100	15.726	
219.200	32.928	
219.300	31.949	
219.400	25.352	
219.500	31.917	
219.600	34.550	
219.700	25.587	
219.800	26.846	
219.900	24.500	
220.000	29.998	
220.100	36.090	
220.200	33.667	
220.300	32.451	
220.400	7.689	
220.500	13.610	
220.600	40.688	
220.700	17.227	
220.800	26.604	
220.900	24.590	
221.000	33.686	
221.100	15.454	
221.200	21.449	
221.300	22.293	
221.400	25.694	
221.500	13.198	
221.600	16.554	
221.700	17.036	
221.800	27.499	
221.900	12.282	
222.000	32.021	
222.100	22.085	
222.200	35.727	
222.300	25.604	
222.400	2.994	
222.500	36.034	
222.600	32.392	
222.700	15.051	
222.800	32.123	
222.900	28.712	
223.000	32.721	
223.100	8.850	
223.200	29.314	
223.300	29.809	
223.400	28.420	
223.500	33.112	
223.600	16.032	
223.700	23.362	
223.800	28.103	
223.900	2.412	
224.000	31.046	
224.100	12.659	
224.200	25.636	
224.300	25.795	
224.400	23.649	
224.500	36.152	
224.600	20.082	
224.700	11.010	
224.800	21.432	
224.900	23.302	
225.000	29.700	
225.100	35.676	
225.200	11.678	
225.300	25.937	
225.400	37.125	
225.500	23.750	
225.600	16.918	
225.700	23.160	
225.800	14.981	
225.900	26.130	
226.000	31.090	
226.100	29.140	
226.200	17.479	
226.300	29.211	
226.400	25.058	
226.500	10.109	
226.600	45.938	
226.700	23.893	
226.800	14.009	
226.900	24.855	
227.000	23.843	
227.100	19.612	
227.200	32.971	
227.300	25.976	
227.400	29.593	
227.500	8.608	
227.600	32.275	
227.700	24.968	
227.800	32.238	
227.900	22.378	
228.000	34.696	
228.100	21.294	
228.200	23.153	
228.300	22.445	
228.400	21.044	
228.500	28.663	
228.600	28.225	
228.700	19.730	
228.800	11.667	
228.900	35.725	
229.000	14.677	
229.100	10.600	
229.200	33.787	
229.300	28.767	
229.400	36.017	
229.500	23.791	
229.600	20.400	
229.700	23.324	
229.800	30.939	
229.900	27.613	
230.000	21.934	
230.100	8.492	
230.200	24.680	
230.300	27.042	
230.400	38.572	
230.500	15.908	
230.600	35.893	
230.700	32.665	
230.800	17.959	
230.900	27.080	
231.000	19.800	
231.100	22.567	
231.200	26.186	
231.300	7.884	
231.400	34.290	
231.500	16.831	
231.600	9.767	
231.700	35.901	
231.800	18.627	
231.900	16.553	
232.000	25.883	
232.100	28.894	
232.200	10.492	
232.300	11.431	
232.400	21.769	
232.500	37.384	
232.600	19.743	
232.700	26.414	
232.800	13.922	
232.900	21.295	
233.000	9.721	
233.100	38.240	
233.200	14.060	
233.300	19.879	
233.400	20.428	
233.500	27.917	
233.600	26.099	
233.700	11.287	
233.800	31.373	
233.900	14.167	
234.000	22.064	
234.100	12.410	
234.200	27.658	
234.300	12.838	
234.400	23.549	
234.500	25.228	
234.600	26.988	
234.700	5.615	
234.800	10.768	
234.900	14.555	
235.000	29.774	
235.100	24.779	
235.200	26.338	
235.300	33.126	
235.400	20.640	
235.500	21.513	
235.600	7.776	
235.700	-0.053	
235.800	26.244	
235.900	23.641	
236.000	30.532	
236.100	20.995	
236.200	10.796	
236.300	22.847	
236.400	26.224	
236.500	15.024	
236.600	28.424	
236.700	25.287	
236.800	22.125	
236.900	15.087	
237.000	46.380	
237.100	25.572	
237.200	17.310	
237.300	13.436	
237.400	20.043	
237.500	15.456	
237.600	12.505	
237.700	26.513	
237.800	43.059	
237.900	20.729	
238.000	19.076	
238.100	9.704	
238.200	16.456	
238.300	-1.335	
238.400	10.743	
238.500	29.818	
238.600	26.737	
238.700	18.249	
238.800	13.777	
238.900	16.233	
239.000	27.116	
239.100	29.282	
239.200	7.905	
239.300	33.034	
239.400	13.502	
239.500	16.492	
239.600	18.600	
239.700	20.282	
239.800	19.770	
239.900	26.485	
240.000	22.655	
240.100	28.130	
240.200	20.153	
240.300	16.441	
240.400	12.267	
240.500	30.990	
240.600	20.009	
240.700	8.570	
240.800	16.373	
240.900	9.687	
241.000	14.818	
241.100	17.406	
241.200	19.028	
241.300	7.464	
241.400	21.191	
241.500	12.092	
241.600	30.197	
241.700	-3.818	
241.800	15.171	
241.900	33.913	
242.000	-5.493	
242.100	-1.906	
242.200	5.797	
242.300	22.835	
242.400	16.930	
242.500	17.971	
242.600	14.532	
242.700	11.493	
242.800	8.091	
242.900	14.833	
243.000	7.758	
243.100	11.325	
243.200	2.418	
243.300	-19.979	
243.400	32.951	
243.500	9.964	
243.600	11.230	
243.700	8.267	
243.800	-3.072	
243.900	3.860	
244.000	26.268	
244.100	0.112	
244.200	14.228	
244.300	3.768	
244.400	4.029	
244.500	0.628	
244.600	13.495	
244.700	-4.857	
244.800	-13.651	
244.900	7.162	
245.000	-4.211	
245.100	6.956	
245.200	-7.657	
245.300	-12.481	
245.400	13.834	
245.500	21.345	
245.600	-10.296	
245.700	-1.469	
245.800	-1.294	
245.900	-0.745	
246.000	-2.651	
246.100	20.288	
246.200	-13.793	
246.300	-8.542	
246.400	0.720	
246.500	-3.054	
246.600	4.198	
246.700	-4.543	
246.800	-9.512	
246.900	0.529	
247.000	4.008	
247.100	-1.218	
247.200	-5.835	
247.300	-18.632	
247.400	-5.037	
247.500	-5.626	
247.600	4.460	
247.700	-10.862	
247.800	-20.894	
247.900	8.814	
248.000	11.297	
248.100	-16.352	
248.200	-1.219	
248.300	3.155	
248.400	-0.358	
248.500	-7.659	
248.600	-17.751	
248.700	-2.305	
248.800	-0.404	
248.900	-3.661	
249.000	-15.468	
249.100	-9.080	
249.200	-14.423	
249.300	-23.707	
249.400	-13.324	
249.500	-5.003	
249.600	6.997	
249.700	-14.319	
249.800	-25.654	
249.900	-11.499	
250.000	-12.813	
250.100	-14.337	
250.200	-0.562	
250.300	-8.559	
250.400	-23.456	
250.500	-16.369	
250.600	-9.197	
250.700	-6.203	
250.800	-12.859	
250.900	-1.762	
251.000	-4.749	
251.100	-7.155	
251.200	-21.596	
251.300	-18.414	
251.400	-12.684	
251.500	-10.060	
251.600	-6.117	
251.700	-19.342	
251.800	-16.318	
251.900	-22.639	
252.000	-14.163	
252.100	-2.881	
252.200	-4.953	
252.300	-0.610	
252.400	-9.330	
252.500	-17.980	
252.600	2.536	
252.700	-21.214	
252.800	-10.898	
252.900	-16.645	
253.000	-7.582	
253.100	-28.777	
253.200	-16.053	
253.300	-24.588	
253.400	-24.205	
253.500	-4.680	
253.600	-5.108	
253.700	-19.491	
253.800	-12.663	
253.900	-17.359	
254.000	-23.421	
254.100	-25.820	
254.200	-16.100	
254.300	-27.276	
254.400	-11.548	
254.500	-9.235	
254.600	-18.109	
254.700	-15.250	
254.800	-11.461	
254.900	-5.139	
255.000	-22.118	
255.100	-9.970	
255.200	-9.206	
255.300	-20.586	
255.400	-28.045	
255.500	-11.787	
255.600	-25.035	
255.700	-9.038	
255.800	-9.224	
255.900	-11.686	
256.000	-22.694	
256.100	-3.914	
256.200	-6.048	
256.300	-21.638	
256.400	-19.944	
256.500	-6.357	
256.600	-20.109	
256.700	-27.183	
256.800	-24.220	
256.900	-13.680	
257.000	-1.007	
257.100	-9.141	
257.200	-9.947	
257.300	-17.677	
257.400	-13.616	
257.500	1.579	
257.600	-23.302	
257.700	-17.859	
257.800	-12.667	
257.900	-3.797	
258.000	-7.268	
258.100	-24.754	
258.200	-17.013	
258.300	-5.687	
258.400	-11.552	
258.500	-28.736	
258.600	-20.458	
258.700	-15.193	
258.800	-10.125	
258.900	-25.102	
259.000	-10.877	
259.100	-17.888	
259.200	-15.127	
259.300	-14.479	
259.400	-14.767	
259.500	-1.116	
259.600	-7.584	
259.700	-9.890	
259.800	-17.073	
259.900	-11.722	
260.000	-9.180	
260.100	-14.210	
260.200	-4.343	
260.300	-16.667	
260.400	-12.971	
260.500	-0.442	
260.600	-6.468	
260.700	-20.724	
260.800	-13.014	
260.900	-18.779	
261.000	-17.337	
261.100	-18.211	
261.200	-10.574	
261.300	-0.216	
261.400	-7.804	
261.500	-11.145	
261.600	-0.602	
261.700	-22.436	
261.800	-25.050	
261.900	3.560	
262.000	-3.850	
262.100	-14.916	
262.200	-13.472	
262.300	-14.062	
262.400	-18.512	
262.500	-5.173	
262.600	-16.684	
262.700	-12.589	
262.800	-9.728	
262.900	-22.057	
263.000	-10.990	
263.100	-2.040	
263.200	-21.715	
263.300	1.583	
263.400	-26.001	
263.500	-26.619	
263.600	0.240	
263.700	0.771	
263.800	-12.501	
263.900	-17.163	
264.000	-31.961	
264.100	-33.314	
264.200	0.556	
264.300	-7.504	
264.400	-9.076	
264.500	-11.409	
264.600	-16.212	
264.700	-12.501	
264.800	-7.813	
264.900	-8.014	
265.000	-5.562	
265.100	-13.968	
265.200	-13.811	
265.300	-7.025	
265.400	-20.175	
265.500	-5.960	
265.600	-24.033	
265.700	-10.682	
265.800	4.907	
265.900	-14.723	
266.000	-22.188	
266.100	2.352	
266.200	-14.222	
266.300	-14.462	
266.400	2.070	
266.500	-13.390	
266.600	-9.666	
266.700	6.200	
266.800	-2.741	
266.900	-14.713	
267.000	-8.079	
267.100	-3.506	
267.200	-25.536	
267.300	-13.033	
267.400	-4.210	
267.500	-17.774	
267.600	-12.425	
267.700	-22.557	
267.800	-11.460	
267.900	-10.413	
268.000	-24.631	
268.100	6.582	
268.200	-7.286	
268.300	-14.230	
268.400	-12.969	
268.500	-11.076	
268.600	-7.777	
268.700	-9.710	
268.800	-19.261	
268.900	-6.369	
269.000	-31.600	
269.100	-2.420	
269.200	-5.484	
269.300	6.166	
269.400	-27.759	
269.500	-13.499	
269.600	-6.851	
269.700	-16.040	
269.800	-20.957	
269.900	-5.185	
270.000	-19.796	
270.100	-6.177	
270.200	-11.800	
270.300	1.222	
270.400	-15.289	
270.500	-15.141	
270.600	-18.467	
270.700	-10.902	
270.800	-9.579	
270.900	-7.209	
271.000	-7.849	
271.100	-7.796	
271.200	-10.411	
271.300	-3.122	
271.400	-5.385	
271.500	-9.160	
271.600	-14.118	
271.700	16.491	
271.800	-21.822	
271.900	-15.171	
272.000	-24.995	
272.100	-11.789	
272.200	-27.862	
272.300	5.236	
272.400	-5.503	
272.500	-0.719	
272.600	-2.785	
272.700	-15.115	
272.800	-17.767	
272.900	-19.962	
273.000	1.325	
273.100	-4.703	
273.200	-3.814	
273.300	-6.764	
273.400	-21.222	
273.500	-6.290	
273.600	-27.663	
273.700	1.896	
273.800	-18.437	
273.900	-3.914	
274.000	-17.673	
274.100	-6.527	
274.200	-16.123	
274.300	-14.238	
274.400	-12.666	
274.500	-8.043	
274.600	-11.481	
274.700	-7.042	
274.800	-19.087	
274.900	-7.341	
275.000	-2.438	
275.100	-10.245	
275.200	-5.926	
275.300	-19.529	
275.400	-20.989	
275.500	-13.056	
275.600	-0.149	
275.700	-17.145	
275.800	-21.731	
275.900	-16.142	
276.000	-11.176	
276.100	-18.692	
276.200	-23.225	
276.300	17.868	
276.400	-7.173	
276.500	-10.636	
276.600	-14.206	
276.700	-23.121	
276.800	-20.849	
276.900	1.786	
277.000	10.158	
277.100	-12.434	
277.200	-0.226	
277.300	-21.974	
277.400	-0.040	
277.500	-3.255	
277.600	-14.258	
277.700	-6.967	
277.800	-14.168	
277.900	4.471	
278.000	-27.048	
278.100	-19.547	
278.200	-15.045	
278.300	-0.858	
278.400	-20.466	
278.500	-3.806	
278.600	-13.456	
278.700	-17.356	
278.800	-11.705	
278.900	-7.238	
279.000	-17.564	
279.100	-3.817	
279.200	-20.117	
279.300	-3.209	
279.400	-19.026	
279.500	-3.366	
279.600	-10.512	
279.700	0.385	
279.800	-12.917	
279.900	-16.407	
280.000	1.704	
280.100	-17.408	
280.200	7.876	
280.300	-20.061	
280.400	-7.652	
280.500	-0.945	
280.600	-7.416	
280.700	-7.320	
280.800	-11.079	
280.900	-26.180	
281.000	-5.286	
281.100	-12.603	
281.200	7.308	
281.300	-11.834	
281.400	-13.891	
281.500	-12.472	
281.600	-21.863	
281.700	0.365	
281.800	-29.382	
281.900	-17.020	
282.000	9.928	
282.100	-11.069	
282.200	-18.404	
282.300	-14.642	
282.400	-5.906	
282.500	-8.219	
282.600	-21.167	
282.700	-8.849	
282.800	-10.990	
282.900	-19.134	
283.000	6.319	
283.100	-10.456	
283.200	-16.132	
283.300	-16.637	
283.400	-6.577	
283.500	-10.121	
283.600	-12.224	
283.700	-14.845	
283.800	-15.102	
283.900	-9.080	
284.000	-6.344	
284.100	3.340	
284.200	-28.465	
284.300	-12.493	
284.400	2.082	
284.500	-23.227	
284.600	0.129	
284.700	-13.611	
284.800	-6.922	
284.900	-2.296	
285.000	-9.763	
285.100	4.623	
285.200	-16.817	
285.300	-12.255	
285.400	-18.885	
285.500	-19.372	
285.600	-7.644	
285.700	-12.005	
285.800	-7.117	
285.900	-14.626	
286.000	-16.193	
286.100	2.169	
286.200	-22.069	
286.300	-2.308	
286.400	-4.295	
286.500	-14.243	
286.600	-6.325	
286.700	-12.925	
286.800	-10.144	
286.900	2.222	
287.000	1.114	
287.100	-24.274	
287.200	1.007	
287.300	-6.621	
287.400	-12.375	
287.500	-17.111	
287.600	5.573	
287.700	-1.809	
287.800	-22.518	
287.900	-1.480	
288.000	9.353	
288.100	-10.925	
288.200	1.798	
288.300	-23.729	
288.400	-3.801	
288.500	-12.934	
288.600	-13.345	
288.700	-18.713	
288.800	-1.541	
288.900	-20.519	
289.000	14.075	
289.100	1.172	
289.200	-6.038	
289.300	-7.875	
289.400	-22.034	
289.500	-12.886	
289.600	-22.890	
289.700	-4.577	
289.800	-11.755	
289.900	-9.914	
290.000	-13.213	
290.100	6.182	
290.200	-3.347	
290.300	-0.473	
290.400	0.653	
290.500	-19.570	
290.600	-11.100	
290.700	-0.385	
290.800	-23.760	
290.900	-2.306	
291.000	-3.127	
291.100	-3.230	
291.200	-20.600	
291.300	-5.094	
291.400	14.154	
291.500	-2.863	
291.600	0.450	
291.700	1.063	
291.800	-7.765	
291.900	1.625	
292.000	-10.059	
292.100	-3.603	
292.200	-11.038	
292.300	-11.745	
292.400	-16.770	
292.500	9.922	
292.600	1.733	
292.700	-7.279	
292.800	-7.522	
292.900	-7.253	
293.000	-0.413	
293.100	-6.760	
293.200	-6.910	
293.300	-10.549	
293.400	-7.071	
293.500	-0.203	
293.600	-9.810	
293.700	-5.691	
293.800	0.532	
293.900	-20.373	
294.000	7.931	
294.100	-14.775	
294.200	-15.759	
294.300	-4.539	
294.400	7.693	
294.500	-16.605	
294.600	-17.432	
294.700	-15.395	
294.800	11.542	
294.900	6.896	
295.000	-17.431	
295.100	-4.489	
295.200	-11.834	
295.300	-13.581	
295.400	-24.100	
295.500	-2.083	
295.600	0.140	
295.700	-11.280	
295.800	-9.543	
295.900	-29.987	
296.000	11.618	
296.100	-1.388	
296.200	8.338	
296.300	11.655	
296.400	-13.176	
296.500	-5.015	
296.600	-3.997	
296.700	-9.225	
296.800	-18.902	
296.900	-4.687	
297.000	-5.959	
297.100	-0.636	
297.200	-13.838	
297.300	-29.450	
297.400	-19.560	
297.500	-3.226	
297.600	9.209	
297.700	-16.457	
297.800	-2.752	
297.900	-7.941	
298.000	10.803	
298.100	-0.903	
298.200	-15.115	
298.300	2.189	
298.400	-11.406	
298.500	1.600	
298.600	3.651	
298.700	-8.280	
298.800	-25.664	
298.900	-4.043	
299.000	-12.880	
299.100	-1.373	
299.200	-13.443	
299.300	-11.616	
299.400	-3.085	
299.500	-13.832	
299.600	2.290	
299.700	1.721	
299.800	2.007	
299.900	0.914	
300.000	-8.435	
300.100	-4.817	
300.200	-0.819	
300.300	-4.958	
300.400	-20.505	
300.500	-8.996	
300.600	-11.635	
300.700	-7.600	
300.800	-3.485	
300.900	-18.057	
301.000	-0.515	
301.100	-5.961	
301.200	-5.996	
301.300	-11.046	
301.400	-14.743	
301.500	-0.482	
301.600	-14.602	
301.700	-19.599	
301.800	0.403	
301.900	-21.110	
302.000	-19.364	
302.100	4.021	
302.200	1.514	
302.300	-14.489	
302.400	-3.433	
302.500	13.673	
302.600	-12.079	
302.700	-3.302	
302.800	-2.938	
302.900	-0.079	
303.000	7.098	
303.100	-24.288	
303.200	-22.739	
303.300	-19.940	
303.400	10.019	
303.500	-6.558	
303.600	5.729	
303.700	-13.826	
303.800	-1.623	
303.900	-8.338	
304.000	-4.704	
304.100	-7.429	
304.200	0.127	
304.300	0.092	
304.400	-12.185	
304.500	-6.794	
304.600	-3.201	
304.700	6.697	
304.800	-19.279	
304.900	1.542	
305.000	-4.325	
305.100	-12.269	
305.200	-4.983	
305.300	-3.365	
305.400	-3.675	
305.500	-15.279	
305.600	-22.178	
305.700	-14.826	
305.800	-13.367	
305.900	10.696	
306.000	2.363	
306.100	1.160	
306.200	-15.005	
306.300	-9.088	
306.400	0.073	
306.500	-10.608	
306.600	-20.124	
306.700	-5.755	
306.800	-2.489	
306.900	17.529	
307.000	-1.167	
307.100	-15.618	
307.200	-6.223	
307.300	3.222	
307.400	-15.710	
307.500	-9.967	
307.600	5.814	
307.700	6.217	
307.800	8.085	
307.900	-14.394	
308.000	-7.130	
308.100	-1.118	
308.200	-21.730	
308.300	-2.761	
308.400	-1.418	
308.500	-17.670	
308.600	0.774	
308.700	-17.461	
308.800	4.751	
308.900	-1.326	
309.000	-7.655	
309.100	-8.970	
309.200	-12.213	
309.300	7.903	
309.400	-14.106	
309.500	-0.353	
309.600	-3.024	
309.700	1.435	
309.800	-6.970	
309.900	-12.181	
310.000	-13.035	
310.100	-5.378	
310.200	4.423	
310.300	1.254	
310.400	0.245	
310.500	0.329	
310.600	-6.274	
310.700	-4.597	
310.800	-3.525	
310.900	-7.716	
311.000	-2.053	
311.100	-4.294	
311.200	-0.606	
311.300	-8.144	
311.400	-18.559	
311.500	5.197	
311.600	-5.723	
311.700	-8.667	
311.800	-4.435	
311.900	0.032	
312.000	-6.757	
312.100	-2.179	
312.200	0.120	
312.300	15.300	
312.400	1.622	
312.500	-15.174	
312.600	-15.787	
312.700	-7.379	
312.800	1.283	
312.900	-11.259	
313.000	4.941	
313.100	-4.389	
313.200	-2.502	
313.300	-23.761	
313.400	-12.020	
313.500	-22.130	
313.600	2.939	
313.700	-3.851	
313.800	-10.569	
313.900	-3.611	
314.000	6.863	
314.100	-5.035	
314.200	-11.442	
314.300	8.684	
314.400	-7.918	
314.500	5.278	
314.600	8.843	
314.700	-7.301	
314.800	-7.028	
314.900	-10.377	
315.000	-4.990	
315.100	6.370	
315.200	-0.491	
315.300	-2.594	
315.400	3.948	
315.500	-8.047	
315.600	9.777	
315.700	0.535	
315.800	3.854	
315.900	0.212	
316.000	7.109	
316.100	9.963	
316.200	-3.216	
316.300	-20.293	
316.400	12.620	
316.500	-0.203	
316.600	-15.182	
316.700	-3.150	
316.800	4.825	
316.900	-0.130	
317.000	8.331	
317.100	4.031	
317.200	-1.235	
317.300	-14.710	
317.400	-2.142	
317.500	2.108	
317.600	-14.089	
317.700	12.671	
317.800	6.563	
317.900	-14.811	
318.000	-14.154	
318.100	-12.508	
318.200	-1.705	
318.300	-5.309	
318.400	-12.010	
318.500	-6.284	
318.600	-8.241	
318.700	-20.835	
318.800	-4.004	
318.900	-4.158	
319.000	-3.475	
319.100	-11.154	
319.200	11.036	
319.300	-11.271	
319.400	-20.088	
319.500	-12.284	
319.600	15.017	
319.700	7.283	
319.800	-9.410	
319.900	-11.429	
320.000	2.554	
320.100	-0.439	
320.200	7.745	
320.300	1.338	
320.400	-7.852	
320.500	-3.705	
320.600	12.219	
320.700	15.553	
320.800	-19.758	
320.900	-9.507	
321.000	-5.990	
321.100	1.172	
321.200	-15.290	
321.300	-2.617	
321.400	-5.086	
321.500	-10.038	
321.600	3.871	
321.700	-5.410	
321.800	-3.582	
321.900	0.924	
322.000	-3.909	
322.100	-4.365	
322.200	-16.511	
322.300	3.668	
322.400	-3.382	
322.500	-1.430	
322.600	-8.778	
322.700	-13.329	
322.800	-4.752	
322.900	-6.721	
323.000	-13.137	
323.100	0.752	
323.200	-11.671	
323.300	-3.364	
323.400	3.083	
323.500	0.925	
323.600	0.614	
323.700	-4.883	
323.800	-0.789	
323.900	3.284	
324.000	-6.878	
324.100	-16.617	
324.200	-13.267	
324.300	-7.021	
324.400	-6.816	
324.500	-14.216	
324.600	-18.468	
324.700	8.113	
324.800	-2.054	
324.900	-13.028	
325.000	2.762	
325.100	2.261	
325.200	3.892	
325.300	-9.535	
325.400	0.129	
325.500	-4.299	
325.600	-15.731	
325.700	-9.153	
325.800	5.373	
325.900	-14.981	
326.000	2.234	
326.100	-11.605	
326.200	-1.796	
326.300	-1.952	
326.400	4.972	
326.500	4.004	
326.600	-24.181	
326.700	-14.216	
326.800	-9.051	
326.900	-3.038	
327.000	11.409	
327.100	-1.162	
327.200	2.493	
327.300	1.253	
327.400	-4.557	
327.500	-1.626	
327.600	23.117	
327.700	-16.700	
327.800	-6.885	
327.900	-2.328	
328.000	2.295	
328.100	-4.552	
328.200	-16.103	
328.300	16.007	
328.400	-14.647	
328.500	3.952	
328.600	10.907	
328.700	-3.075	
328.800	-2.203	
328.900	-4.643	
329.000	3.028	
329.100	-1.723	
329.200	-5.385	
329.300	4.278	
329.400	-9.193	
329.500	3.269	
329.600	0.752	
329.700	-6.570	
329.800	6.709	
329.900	-13.279	
330.000	-3.230	
330.100	9.704	
330.200	-15.678	
330.300	10.845	
330.400	-0.521	
330.500	13.942	
330.600	1.934	
330.700	20.341	
330.800	12.556	
330.900	7.178	
331.000	-1.047	
331.100	36.276	
331.200	18.680	
331.300	34.158	
331.400	31.516	
331.500	20.993	
331.600	12.953	
331.700	22.586	
331.800	12.512	
331.900	16.581	
332.000	15.439	
332.100	43.446	
332.200	18.246	
332.300	-0.788	
332.400	23.963	
332.500	26.420	
332.600	8.293	
332.700	13.758	
332.800	31.251	
332.900	24.618	
333.000	25.102	
333.100	25.097	
333.200	37.921	
333.300	21.165	
333.400	31.631	
333.500	15.681	
333.600	29.034	
333.700	26.413	
333.800	20.456	
333.900	33.907	
334.000	29.549	
334.100	40.417	
334.200	40.827	
334.300	1.388	
334.400	27.665	
334.500	39.531	
334.600	32.663	
334.700	23.925	
334.800	33.812	
334.900	36.869	
335.000	21.169	
335.100	30.555	
335.200	23.753	
335.300	26.969	
335.400	20.288	
335.500	31.943	
335.600	44.368	
335.700	18.221	
335.800	32.375	
335.900	40.080	
336.000	21.226	
336.100	17.595	
336.200	22.495	
336.300	18.720	
336.400	39.960	
336.500	31.399	
336.600	17.543	
336.700	24.342	
336.800	35.220	
336.900	28.276	
337.000	25.866	
337.100	43.079	
337.200	34.662	
337.300	32.456	
337.400	25.697	
337.500	35.504	
337.600	41.838	
337.700	34.465	
337.800	20.137	
337.900	12.433	
338.000	37.461	
338.100	27.407	
338.200	16.500	
338.300	21.137	
338.400	24.332	
338.500	36.408	
338.600	31.722	
338.700	32.382	
338.800	18.899	
338.900	24.976	
339.000	33.681	
339.100	23.682	
339.200	16.228	
339.300	34.915	
339.400	10.865	
339.500	33.174	
339.600	31.140	
339.700	30.333	
339.800	23.671	
339.900	14.155	
340.000	24.244	
340.100	11.701	
340.200	31.359	
340.300	32.381	
340.400	44.808	
340.500	16.418	
340.600	7.334	
340.700	24.991	
340.800	34.640	
340.900	31.067	
341.000	8.969	
341.100	28.844	
341.200	10.052	
341.300	29.724	
341.400	33.065	
341.500	31.290	
341.600	26.619	
341.700	28.945	
341.800	15.255	
341.900	45.799	
342.000	22.215	
342.100	27.411	
342.200	30.318	
342.300	16.590	
342.400	12.155	
342.500	22.990	
342.600	27.575	
342.700	19.034	
342.800	36.816	
342.900	23.034	
343.000	28.001	
343.100	41.614	
343.200	17.902	
343.300	28.359	
343.400	9.376	
343.500	13.747	
343.600	58.454	
343.700	18.130	
343.800	18.288	
343.900	10.066	
344.000	38.042	
344.100	31.126	
344.200	29.774	
344.300	30.128	
344.400	14.900	
344.500	19.122	
344.600	38.782	
344.700	11.614	
344.800	24.991	
344.900	26.613	
345.000	29.377	
345.100	33.210	
345.200	20.225	
345.300	29.445	
345.400	34.165	
345.500	15.202	
345.600	27.693	
345.700	29.044	
345.800	22.091	
345.900	30.770	
346.000	30.238	
346.100	25.218	
346.200	28.818	
346.300	19.570	
346.400	23.067	
346.500	29.218	
346.600	37.692	
346.700	15.027	
346.800	14.825	
346.900	-2.623	
347.000	28.200	
347.100	27.081	
347.200	22.661	
347.300	14.689	
347.400	22.346	
347.500	24.207	
347.600	35.848	
347.700	28.629	
347.800	24.449	
347.900	23.263	
348.000	26.431	
348.100	-0.901	
348.200	20.111	
348.300	30.037	
348.400	29.465	
348.500	31.430	
348.600	24.965	
348.700	21.734	
348.800	24.053	
348.900	14.646	
349.000	15.364	
349.100	18.145	
349.200	19.994	
349.300	22.843	
349.400	33.272	
349.500	23.742	
349.600	35.927	
349.700	37.842	
349.800	11.523	
349.900	14.497	
350.000	22.503	
350.100	20.451	
350.200	23.475	
350.300	8.889	
350.400	25.663	
350.500	30.029	
350.600	30.500	
350.700	24.523	
350.800	12.453	
350.900	22.152	
351.000	21.151	
351.100	29.362	
351.200	24.072	
351.300	9.579	
351.400	26.941	
351.500	18.708	
351.600	23.591	
351.700	33.687	
351.800	8.433	
351.900	33.328	
352.000	20.850	
352.100	13.729	
352.200	2.381	
352.300	38.866	
352.400	20.303	
352.500	27.057	
352.600	20.958	
352.700	30.262	
352.800	20.313	
352.900	20.861	
353.000	25.041	
353.100	31.765	
353.200	29.164	
353.300	26.102	
353.400	10.430	
353.500	28.132	
353.600	19.159	
353.700	15.558	
353.800	41.412	
353.900	28.089	
354.000	8.284	
354.100	20.600	
354.200	35.188	
354.300	27.606	
354.400	37.188	
354.500	12.387	
354.600	15.961	
354.700	34.478	
354.800	19.930	
354.900	30.462	
355.000	1.738	
355.100	28.798	
355.200	8.832	
355.300	22.931	
355.400	12.918	
355.500	31.948	
355.600	29.027	
355.700	22.770	
355.800	18.335	
355.900	17.842	
356.000	22.183	
356.100	4.420	
356.200	27.904	
356.300	37.919	
356.400	13.484	
356.500	28.928	
356.600	7.319	
356.700	15.486	
356.800	33.312	
356.900	13.401	
357.000	33.143	
357.100	19.974	
357.200	16.925	
357.300	20.299	
357.400	14.477	
357.500	33.653	
357.600	20.841	
357.700	7.398	
357.800	24.929	
357.900	20.018	
358.000	24.929	
358.100	36.546	
358.200	36.244	
358.300	19.517	
358.400	26.508	
358.500	22.235	
358.600	4.685	
358.700	32.424	
358.800	17.293	
358.900	25.644	
359.000	26.180	
359.100	29.844	
359.200	24.367	
359.300	10.102	
359.400	13.921	
359.500	26.460	
359.600	21.730	
359.700	28.673	
359.800	28.234	
359.900	20.122	
360.000	12.487	
360.100	30.691	
360.200	23.725	
360.300	23.320	
360.400	18.546	
360.500	17.071	
360.600	8.309	
360.700	28.537	
360.800	15.313	
360.900	13.172	
361.000	28.447	
361.100	20.065	
361.200	8.273	
361.300	23.061	
361.400	38.572	
361.500	19.081	
361.600	20.812	
361.700	2.309	
361.800	33.736	
361.900	43.510	
362.000	19.657	
362.100	7.580	
362.200	43.047	
362.300	24.472	
362.400	19.783	
362.500	25.932	
362.600	17.897	
362.700	12.851	
362.800	30.457	
362.900	21.537	
363.000	31.024	
363.100	17.880	
363.200	36.415	
363.300	1.313	
363.400	15.615	
363.500	24.396	
363.600	0.768	
363.700	22.958	
363.800	28.700	
363.900	16.181	
364.000	23.687	
364.100	24.400	
364.200	17.106	
364.300	19.293	
364.400	46.315	
364.500	16.160	
364.600	11.279	
364.700	3.891	
364.800	21.864	
364.900	32.296	
365.000	24.324	
365.100	19.477	
365.200	35.749	
365.300	36.978	
365.400	24.156	
365.500	9.704	
365.600	21.704	
365.700	21.568	
365.800	26.796	
365.900	32.010	
366.000	19.354	
366.100	22.387	
366.200	10.786	
366.300	9.658	
366.400	9.765	
366.500	29.829	
366.600	20.540	
366.700	57.701	
366.800	28.168	
366.900	21.486	
367.000	28.757	
367.100	19.251	
367.200	16.963	
367.300	18.397	
367.400	23.385	
367.500	38.595	
367.600	18.791	
367.700	20.527	
367.800	6.982	
367.900	22.801	
368.000	29.564	
368.100	36.537	
368.200	21.428	
368.300	33.041	
368.400	29.268	
368.500	18.766	
368.600	15.520	
368.700	17.519	
368.800	22.724	
368.900	29.157	
369.000	37.978	
369.100	23.222	
369.200	19.241	
369.300	10.975	
369.400	19.479	
369.500	27.988	
369.600	29.907	
369.700	18.491	
369.800	9.640	
369.900	17.596	
370.000	11.132	
370.100	35.969	
370.200	31.362	
370.300	27.659	
370.400	14.089	
370.500	2.177	
370.600	28.099	
370.700	0.699	
370.800	12.910	
370.900	36.220	
371.000	15.653	
371.100	16.857	
371.200	22.382	
371.300	30.342	
371.400	13.737	
371.500	24.852	
371.600	32.851	
371.700	21.175	
371.800	14.677	
371.900	19.546	
372.000	22.137	
372.100	31.549	
372.200	7.885	
372.300	24.088	
372.400	41.433	
372.500	22.321	
372.600	-1.754	
372.700	29.152	
372.800	32.865	
372.900	12.989	
373.000	35.743	
373.100	24.556	
373.200	24.120	
373.300	35.459	
373.400	19.607	
373.500	5.843	
373.600	36.243	
373.700	22.346	
373.800	38.130	
373.900	-8.089	
374.000	12.226	
374.100	33.836	
374.200	13.319	
374.300	40.557	
374.400	11.089	
374.500	28.916	
374.600	28.378	
374.700	9.503	
374.800	-0.851	
374.900	28.780	
375.000	25.314	
375.100	33.050	
375.200	17.608	
375.300	27.834	
375.400	19.447	
375.500	19.644	
375.600	18.238	
375.700	22.170	
375.800	17.534	
375.900	10.492	
376.000	12.991	
376.100	10.322	
376.200	21.065	
376.300	26.772	
376.400	16.024	
376.500	27.350	
376.600	25.802	
376.700	28.255	
376.800	17.806	
376.900	19.227	
377.000	23.074	
377.100	18.594	
377.200	21.427	
377.300	19.397	
377.400	14.040	
377.500	22.718	
377.600	27.165	
377.700	21.392	
377.800	23.241	
377.900	14.955	
378.000	12.823	
378.100	19.961	
378.200	29.214	
378.300	30.497	
378.400	27.368	
378.500	16.864	
378.600	29.746	
378.700	16.660	
378.800	23.020	
378.900	26.028	
379.000	36.892	
379.100	23.893	
379.200	21.902	
379.300	13.999	
379.400	7.700	
379.500	38.671	
379.600	24.475	
379.700	22.662	
379.800	36.355	
379.900	39.008	
380.000	13.081	
380.100	14.083	
380.200	26.959	
380.300	20.037	
380.400	23.838	
380.500	18.858	
380.600	26.324	
380.700	18.290	
380.800	18.694	
380.900	20.230	
381.000	25.572	
381.100	20.940	
381.200	3.065	
381.300	45.797	
381.400	28.475	
381.500	20.488	
381.600	19.581	
381.700	18.321	
381.800	7.480	
381.900	-2.943	
382.000	27.001	
382.100	13.396	
382.200	24.529	
382.300	24.393	
382.400	18.475	
382.500	13.318	
382.600	12.693	
382.700	32.852	
382.800	22.497	
382.900	17.875	
383.000	23.843	
383.100	24.143	
383.200	8.846	
383.300	17.703	
383.400	23.497	
383.500	28.236	
383.600	12.690	
383.700	17.054	
383.800	22.068	
383.900	-2.086	
384.000	24.783	
384.100	17.837	
384.200	16.557	
384.300	19.062	
384.400	11.253	
384.500	24.707	
384.600	35.974	
384.700	19.025	
384.800	11.392	
384.900	-2.567	
385.000	37.533	
385.100	13.708	
385.200	16.876	
385.300	7.651	
385.400	18.422	
385.500	19.825	
385.600	22.766	
385.700	23.155	
385.800	8.737	
385.900	23.015	
386.000	27.495	
386.100	22.540	
386.200	-1.075	
386.300	22.076	
386.400	6.966	
386.500	28.960	
386.600	22.392	
386.700	21.452	
386.800	1.083	
386.900	25.481	
387.000	32.209	
387.100	21.209	
387.200	19.398	
387.300	29.639	
387.400	22.915	
387.500	5.190	
387.600	9.040	
387.700	18.895	
387.800	16.716	
387.900	15.747	
388.000	44.318	
388.100	20.914	
388.200	7.626	
388.300	17.123	
388.400	19.124	
388.500	19.122	
388.600	15.257	
388.700	18.537	
388.800	30.354	
388.900	17.399	
389.000	21.161	
389.100	21.095	
389.200	3.902	
389.300	16.472	
389.400	21.699	
389.500	20.695	
389.600	17.626	
389.700	25.728	
389.800	9.844	
389.900	18.238	
390.000	29.674	
390.100	17.034	
390.200	15.926	
390.300	22.569	
390.400	21.668	
390.500	28.528	
390.600	12.380	
390.700	19.819	
390.800	13.295	
390.900	25.864	
391.000	13.449	
391.100	22.432	
391.200	7.020	
391.300	3.612	
391.400	5.984	
391.500	36.440	
391.600	3.404	
391.700	13.119	
391.800	7.598	
391.900	-3.765	
392.000	11.986	
392.100	12.631	
392.200	4.985	
392.300	4.557	
392.400	8.711	
392.500	18.641	
392.600	0.419	
392.700	9.198	
392.800	7.665	
392.900	23.645	
393.000	15.564	
393.100	-11.988	
393.200	-7.648	
393.300	10.064	
393.400	9.560	
393.500	25.649	
393.600	-1.875	
393.700	-3.501	
393.800	8.219	
393.900	3.837	
394.000	0.440	
394.100	4.547	
394.200	-4.765	
394.300	21.458	
394.400	-0.430	
394.500	7.113	
394.600	-10.447	
394.700	10.294	
394.800	-0.276	
394.900	-10.531	
395.000	15.191	
395.100	6.360	
395.200	-14.507	
395.300	-14.324	
395.400	12.267	
395.500	4.414	
395.600	-2.241	
395.700	4.122	
395.800	-26.725	
395.900	-9.330	
396.000	-0.908	
396.100	-6.627	
396.200	-1.150	
396.300	-21.224	
396.400	2.174	
396.500	12.751	
396.600	5.993	
396.700	-7.100	
396.800	1.874	
396.900	-6.985	
397.000	-5.949	
397.100	2.266	
397.200	-5.155	
397.300	-9.525	
397.400	-0.881	
397.500	-21.456	
397.600	-2.881	
397.700	-1.435	
397.800	4.349	
397.900	-10.678	
398.000	-12.580	
398.100	-12.552	
398.200	-11.251	
398.300	-9.017	
398.400	-19.433	
398.500	-3.061	
398.600	0.884	
398.700	-4.305	
398.800	-17.930	
398.900	-13.095	
399.000	-7.316	
399.100	8.882	
399.200	-10.984	
399.300	-18.590	
399.400	-13.209	
399.500	-22.492	
399.600	-7.475	
399.700	-25.713	
399.800	-13.433	
399.900	-8.011	
400.000	5.032	
400.100	-12.899	
400.200	-13.169	
400.300	-14.942	
400.400	-12.414	
400.500	-16.514	
400.600	-5.591	
400.700	-5.401	
400.800	-16.294	
400.900	-6.878	
401.000	-12.556	
401.100	-26.586	
401.200	-17.204	
401.300	-7.943	
401.400	-10.370	
401.500	-18.600	
401.600	-18.988	
401.700	-3.477	
401.800	-30.311	
401.900	-2.400	
402.000	-31.697	
402.100	-18.150	
402.200	-20.015	
402.300	-31.866	
402.400	-9.686	
402.500	1.403	
402.600	-24.338	
402.700	-25.444	
402.800	5.994	
402.900	-18.792	
403.000	-19.611	
403.100	-9.646	
403.200	-8.292	
403.300	-16.199	
403.400	-33.596	
403.500	-11.494	
403.600	-25.425	
403.700	-25.741	
403.800	-6.601	
403.900	-11.221	
404.000	-33.446	
404.100	-4.298	
404.200	-5.047	
404.300	-16.706	
404.400	-8.606	
404.500	-11.533	
404.600	-13.330	
404.700	4.585	
404.800	-16.781	
404.900	-21.724	
405.000	-12.183	
405.100	-18.786	
405.200	-11.740	
405.300	-13.550	
405.400	-22.536	
405.500	-9.652	
405.600	-30.589	
405.700	-18.289	
405.800	-13.231	
405.900	-21.427	
406.000	-16.608	
406.100	-23.937	
406.200	-15.050	
406.300	-16.270	
406.400	-11.462	
406.500	-25.982	
406.600	-16.308	
406.700	-20.127	
406.800	-13.754	
406.900	-7.576	
407.000	-13.956	
407.100	-5.415	
407.200	-29.253	
407.300	-15.941	
407.400	-5.878	
407.500	-9.014	
407.600	-19.273	
407.700	-24.622	
407.800	-17.417	
407.900	-23.200	
408.000	-20.201	
408.100	-36.399	
408.200	-6.665	
408.300	-10.294	
408.400	-25.485	
408.500	-9.299	
408.600	0.150	
408.700	-18.113	
408.800	-19.827	
408.900	-31.080	
409.000	-5.810	
409.100	-24.498	
409.200	-17.263	
409.300	-2.955	
409.400	-24.096	
409.500	-27.890	
409.600	-12.498	
409.700	-8.405	
409.800	-6.172	
409.900	-14.465	
410.000	-10.838	
410.100	-34.438	
410.200	-16.235	
410.300	-13.345	
410.400	-19.260	
410.500	-7.544	
410.600	-26.473	
410.700	-9.130	
410.800	-17.448	
410.900	-32.784	
411.000	-0.617	
411.100	-9.089	
411.200	-14.114	
411.300	-3.355	
411.400	-18.918	
411.500	-9.822	
411.600	-24.841	
411.700	-10.689	
411.800	-1.371	
411.900	-32.797	
412.000	-15.460	
412.100	-25.002	
412.200	-9.268	
412.300	-7.537	
412.400	-7.938	
412.500	-22.306	
412.600	-15.782	
412.700	-7.862	
412.800	-13.671	
412.900	-13.795	
413.000	-9.399	
413.100	-18.216	
413.200	-25.938	
413.300	-8.962	
413.400	-13.845	
413.500	-5.165	
413.600	-30.558	
413.700	-8.813	
413.800	-16.309	
413.900	-3.437	
414.000	4.294	
414.100	-32.909	
414.200	-15.001	
414.300	-6.876	
414.400	-4.530	
414.500	-23.831	
414.600	-18.360	
414.700	-32.927	
414.800	-2.061	
414.900	-6.646	
415.000	-7.331	
415.100	-12.023	
415.200	-26.295	
415.300	-18.642	
415.400	-21.550	
415.500	-12.278	
415.600	-7.572	
415.700	-5.067	
415.800	4.306	
415.900	-15.408	
416.000	-5.485	
416.100	-18.623	
416.200	-18.791	
416.300	-7.219	
416.400	0.798	
416.500	-26.837	
416.600	-4.441	
416.700	-14.812	
416.800	0.991	
416.900	-5.555	
417.000	0.318	
417.100	4.280	
417.200	-20.982	
417.300	-18.012	
417.400	-15.927	
417.500	-18.564	
417.600	-1.769	
417.700	-4.114	
417.800	-15.080	
417.900	-17.107	
418.000	1.685	
418.100	-25.559	
418.200	-6.318	
418.300	-7.976	
418.400	-17.757	
418.500	-8.475	
418.600	-19.515	
418.700	-5.101	
418.800	-10.214	
418.900	-20.881	
419.000	-5.584	
419.100	-11.472	
419.200	-9.277	
419.300	0.996	
419.400	-14.876	
419.500	-25.750	
419.600	-5.264	
419.700	-1.010	
419.800	-8.279	
419.900	-18.664	
420.000	-20.652	
420.100	-29.586	
420.200	-9.668	
420.300	-9.458	
420.400	0.398	
420.500	2.376	
420.600	-21.905	
420.700	-2.714	
420.800	-25.355	
420.900	-7.762	
421.000	-6.547	
421.100	-13.280	
421.200	-17.111	
421.300	-1.659	
421.400	-10.521	
421.500	-27.389	
421.600	-13.271	
421.700	-3.972	
421.800	-20.020	
421.900	-11.764	
422.000	10.755	
422.100	-14.960	
422.200	-35.532	
422.300	-16.254	
422.400	-3.535	
422.500	-15.622	
422.600	-4.987	
422.700	-13.853	
422.800	-9.973	
422.900	-15.636	
423.000	-14.642	
423.100	-7.013	
423.200	-12.173	
423.300	-14.030	
423.400	-6.747	
423.500	-0.652	
423.600	-14.504	
423.700	-3.994	
423.800	-7.723	
423.900	-24.178	
424.000	-9.152	
424.100	1.025	
424.200	-8.433	
424.300	-1.300	
424.400	-21.346	
424.500	-29.116	
424.600	-11.399	
424.700	-5.808	
424.800	-14.486	
424.900	-14.913	
425.000	-2.968	
425.100	-10.318	
425.200	6.229	
425.300	-16.937	
425.400	-10.537	
425.500	-35.004	
425.600	-1.985	
425.700	-5.663	
425.800	-18.426	
425.900	-12.963	
426.000	-2.760	
426.100	-9.452	
426.200	-8.201	
426.300	-12.356	
426.400	-23.778	
426.500	-12.175	
426.600	-7.639	
426.700	-13.246	
426.800	-10.225	
426.900	0.544	
427.000	-9.868	
427.100	-7.945	
427.200	-4.642	
427.300	-10.923	
427.400	-26.916	
427.500	-1.916	
427.600	-9.161	
427.700	-13.669	
427.800	-12.921	
427.900	-10.322	
428.000	-14.047	
428.100	-9.778	
428.200	-23.520	
428.300	-0.258	
428.400	-16.892	
428.500	-7.537	
428.600	-4.046	
428.700	-27.809	
428.800	0.267	
428.900	-1.533	
429.000	-8.821	
429.100	-16.286	
429.200	-14.141	
429.300	-0.393	
429.400	-7.230	
429.500	-7.355	
429.600	-26.227	
429.700	1.106	
429.800	-23.476	
429.900	-31.241	
430.000	-20.881	
430.100	3.320	
430.200	-6.615	
430.300	-8.655	
430.400	-2.820	
430.500	-6.798	
430.600	-29.388	
430.700	-0.519	
430.800	-13.955	
430.900	-4.207	
431.000	-3.834	
431.100	-6.278	
431.200	-8.147	
431.300	0.899	
431.400	-18.868	
431.500	-2.685	
431.600	-24.776	
431.700	-13.503	
431.800	-11.912	
431.900	-19.704	
432.000	12.890	
432.100	-12.390	
432.200	-13.675	
432.300	5.865	
432.400	0.563	
432.500	16.266	
432.600	-22.990	
432.700	-0.579	
432.800	-0.360	
432.900	-6.283	
433.000	-22.386	
433.100	-1.100	
433.200	-15.522	
433.300	-12.378	
433.400	8.417	
433.500	-5.305	
433.600	-8.924	
433.700	-14.637	
433.800	-18.598	
433.900	-12.151	
434.000	10.671	
434.100	-9.593	
434.200	-7.148	
434.300	-6.053	
434.400	1.120	
434.500	-4.827	
434.600	-16.699	
434.700	-20.975	
434.800	-3.285	
434.900	-23.173	
435.000	-31.549	
435.100	-7.177	
435.200	14.695	
435.300	-6.148	
435.400	-8.735	
435.500	-18.586	
435.600	-13.420	
435.700	-7.300	
435.800	-4.501	
435.900	-9.319	
436.000	-5.276	
436.100	-14.545	
436.200	-11.304	
436.300	-5.817	
436.400	-6.040	
436.500	-0.045	
436.600	-8.194	
436.700	-18.797	
436.800	-13.301	
436.900	-7.945	
437.000	-10.566	
437.100	0.030	
437.200	-2.772	
437.300	-12.984	
437.400	-1.132	
437.500	7.027	
437.600	-14.284	
437.700	-6.625	
437.800	-6.715	
437.900	-3.975	
438.000	-6.452	
438.100	-11.210	
438.200	-8.413	
438.300	-0.980	
438.400	-10.420	
438.500	-26.457	
438.600	-3.570	
438.700	-24.627	
438.800	-11.029	
438.900	-10.077	
439.000	-11.971	
439.100	-1.048	
439.200	-14.645	
439.300	-1.503	
439.400	-12.014	
439.500	7.346	
439.600	-18.113	
439.700	-15.077	
439.800	-11.950	
439.900	-6.974	
440.000	-13.289	
440.100	-6.527	
440.200	-8.941	
440.300	-9.615	
440.400	-5.845	
440.500	-17.141	
440.600	14.586	
440.700	9.828	
440.800	-9.967	
440.900	-9.780	
441.000	-4.611	
441.100	-27.756	
441.200	-24.236	
441.300	3.756	
441.400	-7.595	
441.500	-9.676	
441.600	-7.816	
441.700	7.274	
441.800	-1.894	
441.900	-4.984	
442.000	-20.779	
442.100	-15.297	
442.200	-13.409	
442.300	0.357	
442.400	-5.014	
442.500	-3.555	
442.600	-4.319	
442.700	-4.300	
442.800	-7.086	
442.900	-5.486	
443.000	1.478	
443.100	-14.081	
443.200	-13.389	
443.300	-5.705	
443.400	-13.431	
443.500	0.460	
443.600	-11.040	
443.700	25.064	
443.800	5.429	
443.900	-5.648	
444.000	-6.403	
444.100	-22.668	
444.200	-8.947	
444.300	-14.372	
444.400	-2.619	
444.500	-24.770	
444.600	-4.875	
444.700	2.614	
444.800	-14.406	
444.900	-12.611	
445.000	-7.824	
445.100	-7.109	
445.200	-12.887	
445.300	-9.080	
445.400	-20.107	
445.500	-4.571	
445.600	-8.262	
445.700	-5.956	
445.800	-11.264	
445.900	-12.615	
446.000	1.164	
446.100	4.317	
446.200	6.052	
446.300	3.834	
446.400	-21.191	
446.500	-14.393	
446.600	1.097	
446.700	-7.344	
446.800	5.094	
446.900	-6.526	
447.000	-12.574	
447.100	-1.818	
447.200	-13.428	
447.300	-11.025	
447.400	-8.919	
447.500	-4.615	
447.600	0.597	
447.700	-0.152	
447.800	-15.035	
447.900	-9.973	
448.000	8.008	
448.100	-2.772	
448.200	0.687	
448.300	-1.353	
448.400	7.374	
448.500	-1.089	
448.600	1.198	
448.700	-12.915	
448.800	-7.858	
448.900	3.262	
449.000	-13.067	
449.100	-8.503	
449.200	-2.409	
449.300	-13.452	
449.400	-0.370	
449.500	6.216	
449.600	-8.718	
449.700	4.129	
449.800	-6.701	
449.900	-3.584	
450.000	-17.987	
450.100	-1.351	
450.200	-8.737	
450.300	4.603	
450.400	-4.406	
450.500	-15.478	
450.600	-15.856	
450.700	5.459	
450.800	-17.489	
450.900	-0.983	
451.000	-13.872	
451.100	-11.588	
451.200	-4.825	
451.300	-10.124	
451.400	-5.553	
451.500	-2.278	
451.600	-0.881	
451.700	7.639	
451.800	-1.115	
451.900	-1.065	
452.000	-21.873	
452.100	0.208	
452.200	-11.137	
452.300	-2.768	
452.400	-4.604	
452.500	-2.821	
452.600	-7.149	
452.700	-11.799	
452.800	19.450	
452.900	10.052	
453.000	-11.569	
453.100	-0.347	
453.200	-18.654	
453.300	-11.532	
453.400	-8.190	
453.500	-3.690	
453.600	3.675	
453.700	-14.037	
453.800	13.697	
453.900	0.582	
454.000	-10.180	
454.100	-30.944	
454.200	-2.086	
454.300	12.208	
454.400	-9.315	
454.500	-0.675	
454.600	9.640	
454.700	-16.710	
454.800	1.470	
454.900	-10.145	
455.000	-13.223	
455.100	0.868	
455.200	-0.432	
455.300	-19.684	
455.400	1.628	
455.500	-15.787	
455.600	-13.251	
455.700	5.789	
455.800	-7.377	
455.900	-12.980	
456.000	-5.472	
456.100	-7.504	
456.200	-5.888	
456.300	-9.174	
456.400	-9.647	
456.500	-31.339	
456.600	-17.316	
456.700	-14.784	
456.800	-7.402	
456.900	-4.854	
457.000	-11.493	
457.100	-11.667	
457.200	-2.284	
457.300	10.797	
457.400	-13.558	
457.500	5.292	
457.600	14.482	
457.700	-16.824	
457.800	-17.591	
457.900	6.533	
458.000	-7.840	
458.100	-6.007	
458.200	-8.227	
458.300	-8.812	
458.400	-2.462	
458.500	6.051	
458.600	0.899	
458.700	-10.896	
458.800	-4.769	
458.900	-17.104	
459.000	-24.951	
459.100	-12.674	
459.200	8.407	
459.300	-8.956	
459.400	-22.266	
459.500	4.957	
459.600	-8.171	
459.700	-16.141	
459.800	3.891	
459.900	-8.990	
460.000	6.541	
460.100	4.754	
460.200	-5.784	
460.300	-3.436	
460.400	-8.594	
460.500	-4.100	
460.600	-6.584	
460.700	3.538	
460.800	2.963	
460.900	-13.810	
461.000	4.557	
461.100	-7.534	
461.200	4.347	
461.300	-8.096	
461.400	-4.156	
461.500	-7.682	
461.600	3.433	
461.700	-3.110	
461.800	-0.328	
461.900	6.813	
462.000	-5.710	
462.100	4.131	
462.200	-0.417	
462.300	-8.503	
462.400	-16.298	
462.500	-3.693	
462.600	-7.042	
462.700	-3.535	
462.800	-13.687	
462.900	8.248	
463.000	-12.978	
463.100	6.521	
463.200	7.883	
463.300	1.064	
463.400	-18.792	
463.500	11.009	
463.600	-10.460	
463.700	-2.224	
463.800	10.824	
463.900	-7.765	
464.000	-7.017	
464.100	-13.042	
464.200	3.348	
464.300	-14.548	
464.400	12.386	
464.500	-4.778	
464.600	1.142	
464.700	-7.362	
464.800	-28.124	
464.900	-20.411	
465.000	3.523	
465.100	-20.833	
465.200	3.016	
465.300	-16.987	
465.400	-14.232	
465.500	10.331	
465.600	-3.946	
465.700	-6.346	
465.800	-0.186	
465.900	0.563	
466.000	1.800	
466.100	7.525	
466.200	17.183	
466.300	3.822	
466.400	-6.654	
466.500	-20.317	
466.600	-5.359	
466.700	2.532	
466.800	-3.764	
466.900	-0.849	
467.000	5.256	
467.100	4.184	
467.200	-17.836	
467.300	-8.740	
467.400	14.288	
467.500	0.698	
467.600	-2.007	
467.700	-8.510	
467.800	9.391	
467.900	0.333	
468.000	-8.990	
468.100	6.190	
468.200	-7.414	
468.300	-6.376	
468.400	-1.407	
468.500	-5.219	
468.600	-9.456	
468.700	-8.196	
468.800	-0.507	
468.900	-12.862	
469.000	-0.326	
469.100	-12.248	
469.200	-1.213	
469.300	0.355	
469.400	1.893	
469.500	-0.830	
469.600	-11.500	
469.700	-4.581	
469.800	-15.006	
469.900	-5.517	
470.000	11.658	
470.100	8.104	
470.200	-3.935	
470.300	-4.545	
470.400	0.015	
470.500	-3.001	
470.600	-3.902	
470.700	2.085	
470.800	-15.424	
470.900	-4.691	
471.000	-3.478	
471.100	7.517	
471.200	-5.431	
471.300	4.619	
471.400	4.216	
471.500	-19.354	
471.600	-7.378	
471.700	16.047	
471.800	-6.145	
471.900	-4.967	
472.000	1.363	
472.100	-6.928	
472.200	4.112	
472.300	-11.146	
472.400	-1.516	
472.500	-1.150	
472.600	-12.910	
472.700	11.210	
472.800	-1.444	
472.900	-15.368	
473.000	-9.153	
473.100	6.811	
473.200	-10.981	
473.300	-9.045	
473.400	-4.571	
473.500	-0.506	
473.600	-0.766	
473.700	2.473	
473.800	-8.294	
473.900	-6.439	
474.000	-4.839	
474.100	1.805	
474.200	-11.299	
474.300	-13.884	
474.400	-12.504	
474.500	1.579	
474.600	-7.298	
474.700	1.957	
474.800	-7.349	
474.900	-19.414	
475.000	0.033	
475.100	5.934	
475.200	-1.532	
475.300	-3.173	
475.400	-14.659	
475.500	-5.638	
475.600	7.663	
475.700	-21.833	
475.800	7.641	
475.900	-0.279	
476.000	-9.295	
476.100	-13.440	
476.200	-5.691	
476.300	-12.731	
476.400	12.300	
476.500	-1.785	
476.600	0.842	
476.700	1.750	
476.800	-19.862	
476.900	-11.845	
477.000	3.951	
477.100	0.995	
477.200	-8.574	
477.300	-4.257	
477.400	4.713	
477.500	6.035	
477.600	16.263	
477.700	-0.782	
477.800	0.994	
477.900	-16.037	
478.000	4.493	
478.100	-9.528	
478.200	10.892	
478.300	9.013	
478.400	-4.326	
478.500	0.508	
478.600	-10.411	
478.700	-1.383	
478.800	-5.459	
478.900	13.375	
479.000	-12.888	
479.100	7.688	
479.200	-9.588	
479.300	-4.991	
479.400	-7.395	
479.500	3.056	
479.600	-0.136	
479.700	-8.678	
479.800	-5.241	
479.900	1.745	
480.000	3.342	
480.100	-2.196	
480.200	0.713	
480.300	-4.458	
480.400	-6.891	
480.500	0.313	
480.600	19.208	
480.700	12.111	
480.800	9.302	
480.900	13.116	
481.000	8.218	
481.100	20.083	
481.200	13.397	
481.300	18.857	
481.400	22.369	
481.500	1.675	
481.600	10.630	
481.700	26.121	
481.800	16.123	
481.900	9.973	
482.000	11.774	
482.100	27.230	
482.200	1.534	
482.300	43.485	
482.400	30.516	
482.500	7.778	
482.600	27.723	
482.700	25.630	
482.800	23.354	
482.900	16.790	
483.000	18.022	
483.100	19.041	
483.200	32.940	
483.300	18.011	
483.400	8.294	
483.500	19.838	
483.600	40.151	
483.700	31.840	
483.800	32.745	
483.900	37.535	
484.000	26.379	
484.100	12.260	
484.200	11.328	
484.300	48.767	
484.400	33.555	
484.500	21.812	
484.600	26.086	
484.700	18.667	
484.800	16.228	
484.900	20.906	
485.000	47.650	
485.100	38.440	
485.200	31.798	
485.300	26.772	
485.400	35.803	
485.500	34.830	
485.600	32.175	
485.700	25.901	
485.800	21.328	
485.900	16.310	
486.000	32.092	
486.100	36.254	
486.200	25.328	
486.300	14.156	
486.400	45.761	
486.500	32.921	
486.600	7.392	
486.700	22.808	
486.800	31.882	
486.900	26.078	
487.000	11.184	
487.100	40.150	
487.200	31.429	
487.300	19.175	
487.400	28.994	
487.500	25.387	
487.600	36.154	
487.700	19.932	
487.800	30.009	
487.900	14.284	
488.000	10.274	
488.100	21.370	
488.200	35.671	
488.300	30.341	
488.400	26.136	
488.500	34.194	
488.600	24.169	
488.700	27.515	
488.800	26.692	
488.900	3.719	
489.000	29.951	
489.100	9.161	
489.200	22.031	
489.300	21.947	
489.400	33.132	
489.500	28.816	
489.600	48.387	
489.700	32.224	
489.800	28.326	
489.900	25.898	
490.000	38.394	
490.100	9.427	
490.200	20.970	
490.300	22.120	
490.400	24.654	
490.500	30.112	
490.600	15.718	
490.700	16.512	
490.800	26.085	
490.900	24.001	
491.000	40.624	
491.100	27.090	
491.200	30.370	
491.300	10.823	
491.400	22.882	
491.500	28.464	
491.600	13.927	
491.700	18.943	
491.800	25.627	
491.900	12.310	
492.000	48.906	
492.100	25.243	
492.200	14.849	
492.300	14.460	
492.400	33.463	
492.500	0.445	
492.600	38.530	
492.700	27.893	
492.800	27.259	
492.900	10.408	
493.000	43.541	
493.100	26.597	
493.200	39.418	
493.300	23.584	
493.400	8.143	
493.500	33.100	
493.600	11.612	
493.700	19.998	
493.800	26.189	
493.900	6.253	
494.000	44.440	
494.100	25.425	
494.200	13.505	
494.300	29.454	
494.400	15.924	
494.500	39.256	
494.600	21.935	
494.700	14.541	
494.800	40.110	
494.900	27.705	
495.000	29.877	
495.100	27.766	
495.200	19.964	
495.300	28.885	
495.400	16.402	
495.500	21.829	
495.600	40.623	
495.700	10.844	
495.800	31.639	
495.900	0.888	
496.000	32.193	
496.100	36.883	
496.200	7.364	
496.300	-1.783	
496.400	35.951	
496.500	35.922	
496.600	13.960	
496.700	22.310	
496.800	41.783	
496.900	17.755	
497.000	29.327	
497.100	10.375	
497.200	34.649	
497.300	32.076	
497.400	21.326	
497.500	33.571	
497.600	1.721	
497.700	30.630	
497.800	42.232	
497.900	15.327	
498.000	25.042	
498.100	39.276	
498.200	15.335	
498.300	-2.644	
498.400	20.625	
498.500	26.357	
498.600	27.403	
498.700	16.195	
498.800	2.844	
498.900	14.545	
499.000	38.811	
499.100	27.879	
499.200	29.993	
499.300	19.741	
499.400	32.089	
499.500	16.358	
499.600	27.128	
499.700	4.257	
499.800	17.146	
499.900	16.519	
500.000	13.065	
500.100	26.738	
500.200	12.615	
500.300	30.008	
500.400	11.531	
500.500	23.989	
500.600	21.999	
500.700	32.935	
500.800	15.007	
500.900	24.420	
501.000	13.334	
501.100	10.031	
501.200	25.822	
501.300	12.799	
501.400	8.212	
501.500	29.480	
501.600	40.721	
501.700	25.386	
501.800	18.930	
501.900	18.256	
502.000	3.869	
502.100	31.161	
502.200	39.213	
502.300	23.792	
502.400	15.837	
502.500	29.800	
502.600	28.040	
502.700	0.010	
502.800	29.077	
502.900	22.659	
503.000	12.910	
503.100	20.676	
503.200	20.517	
503.300	22.957	
503.400	20.342	
503.500	13.495	
503.600	24.170	
503.700	39.815	
503.800	9.608	
503.900	33.753	
504.000	32.457	
504.100	33.334	
504.200	30.561	
504.300	20.173	
504.400	28.217	
504.500	19.046	
504.600	33.411	
504.700	22.990	
504.800	20.953	
504.900	30.045	
505.000	40.103	
505.100	31.399	
505.200	36.679	
505.300	22.049	
505.400	37.237	
505.500	5.289	
505.600	30.101	
505.700	17.604	
505.800	21.618	
505.900	21.583	
506.000	28.784	
506.100	31.075	
506.200	35.894	
506.300	15.972	
506.400	24.512	
506.500	36.324	
506.600	32.009	
506.700	11.621	
506.800	38.437	
506.900	19.521	
507.000	10.353	
507.100	10.197	
507.200	31.043	
507.300	28.720	
507.400	9.984	
507.500	5.780	
507.600	20.805	
507.700	28.942	
507.800	21.941	
507.900	41.097	
508.000	17.290	
508.100	6.230	
508.200	20.503	
508.300	14.060	
508.400	26.946	
508.500	19.044	
508.600	19.536	
508.700	31.801	
508.800	13.848	
508.900	-1.505	
509.000	3.907	
509.100	32.069	
509.200	30.617	
509.300	30.955	
509.400	12.626	
509.500	23.466	
509.600	19.301	
509.700	24.191	
509.800	15.625	
509.900	20.731	
510.000	30.377	
510.100	27.390	
510.200	18.608	
510.300	27.172	
510.400	20.712	
510.500	28.688	
510.600	25.920	
510.700	17.884	
510.800	31.423	
510.900	33.953	
511.000	24.338	
511.100	22.160	
511.200	37.378	
511.300	16.650	
511.400	10.904	
511.500	31.260	
511.600	25.340	
511.700	16.206	
511.800	28.677	
511.900	3.588	
512.000	42.452	
512.100	4.654	
512.200	26.101	
512.300	20.613	
512.400	16.144	
512.500	25.676	
512.600	24.431	
512.700	1.060	
512.800	23.455	
512.900	34.479	
513.000	10.631	
513.100	34.016	
513.200	11.092	
513.300	32.161	
513.400	21.347	
513.500	18.568	
513.600	-3.849	
513.700	22.902	
513.800	31.349	
513.900	25.216	
514.000	8.470	
514.100	22.330	
514.200	9.244	
514.300	28.913	
514.400	32.335	
514.500	20.712	
514.600	18.691	
514.700	30.083	
514.800	25.574	
514.900	5.568	
515.000	21.952	
515.100	21.352	
515.200	39.431	
515.300	26.050	
515.400	28.018	
515.500	19.406	
515.600	7.451	
515.700	24.355	
515.800	40.483	
515.900	2.823	
516.000	28.083	
516.100	27.429	
516.200	29.452	
516.300	21.611	
516.400	22.473	
516.500	28.736	
516.600	17.123	
516.700	23.702	
516.800	27.349	
516.900	21.847	
517.000	27.828	
517.100	25.637	
517.200	25.092	
517.300	24.869	
517.400	16.984	
517.500	16.987	
517.600	36.298	
517.700	27.868	
517.800	10.242	
517.900	31.478	
518.000	24.105	
518.100	12.068	
518.200	26.876	
518.300	6.299	
518.400	27.349	
518.500	24.941	
518.600	23.662	
518.700	10.489	
518.800	27.590	
518.900	23.148	
519.000	21.251	
519.100	25.442	
519.200	-0.348	
519.300	27.046	
519.400	15.551	
519.500	16.196	
519.600	16.566	
519.700	12.053	
519.800	39.411	
519.900	8.952	
520.000	13.895	
520.100	11.845	
520.200	37.772	
520.300	17.731	
520.400	29.028	
520.500	27.030	
520.600	16.816	
520.700	25.417	
520.800	9.928	
520.900	2.793	
521.000	36.217	
521.100	30.605	
521.200	9.076	
521.300	23.535	
521.400	30.413	
521.500	14.809	
521.600	31.885	
521.700	24.455	
521.800	27.325	
521.900	9.515	
522.000	34.380	
522.100	29.425	
522.200	18.159	
522.300	22.518	
522.400	17.373	
522.500	18.817	
522.600	19.766	
522.700	5.068	
522.800	31.978	
522.900	14.464	
523.000	21.540	
523.100	35.225	
523.200	27.734	
523.300	30.161	
523.400	27.039	
523.500	18.414	
523.600	21.266	
523.700	25.762	
523.800	22.892	
523.900	5.708	
524.000	20.506	
524.100	11.318	
524.200	19.426	
524.300	26.037	
524.400	14.723	
524.500	26.167	
524.600	9.051	
524.700	19.646	
524.800	34.582	
524.900	20.460	
525.000	16.144	
525.100	23.741	
525.200	19.245	
525.300	12.121	
525.400	12.848	
525.500	40.385	
525.600	26.367	
525.700	22.337	
525.800	19.653	
525.900	13.411	
526.000	29.828	
526.100	20.314	
526.200	25.111	
526.300	11.373	
526.400	18.660	
526.500	29.684	
526.600	32.709	
526.700	18.304	
526.800	22.351	
526.900	21.726	
527.000	31.358	
527.100	30.423	
527.200	8.005	
527.300	15.832	
527.400	18.166	
527.500	18.896	
527.600	14.172	
527.700	23.509	
527.800	21.777	
527.900	20.904	
528.000	18.711	
528.100	10.662	
528.200	24.222	
528.300	12.789	
528.400	14.701	
528.500	42.986	
528.600	30.538	
528.700	30.246	
528.800	8.234	
528.900	13.091	
529.000	18.815	
529.100	22.309	
529.200	40.621	
529.300	19.401	
529.400	14.878	
529.500	28.870	
529.600	3.401	
529.700	5.519	
529.800	33.398	
529.900	-1.902	
530.000	29.406	
530.100	17.721	
530.200	31.929	
530.300	18.835	
530.400	20.159	
530.500	36.083	
530.600	43.295	
530.700	16.344	
530.800	8.053	
530.900	5.860	
531.000	34.145	
531.100	-3.027	
531.200	36.127	
531.300	21.352	
531.400	27.434	
531.500	22.132	
531.600	22.222	
531.700	21.385	
531.800	26.384	
531.900	22.427	
532.000	15.901	
532.100	7.445	
532.200	35.380	
532.300	28.326	
532.400	15.261	
532.500	19.016	
532.600	19.451	
532.700	31.435	
532.800	20.599	
532.900	28.927	
533.000	9.998	
533.100	10.746	
533.200	5.077	
533.300	18.597	
533.400	11.725	
533.500	35.377	
533.600	33.582	
533.700	14.133	
533.800	19.338	
533.900	34.781	
534.000	30.014	
534.100	22.788	
534.200	13.240	
534.300	22.007	
534.400	12.922	
534.500	18.399	
534.600	19.665	
534.700	19.331	
534.800	29.400	
534.900	22.916	
535.000	17.417	
535.100	24.832	
535.200	21.814	
535.300	20.656	
535.400	3.073	
535.500	43.036	
535.600	16.788	
535.700	5.505	
535.800	9.182	
535.900	27.441	
536.000	25.602	
536.100	12.384	
536.200	15.195	
536.300	20.152	
536.400	20.963	
536.500	27.937	
536.600	40.100	
536.700	8.104	
536.800	19.450	
536.900	20.010	
537.000	12.226	
537.100	32.182	
537.200	19.029	
537.300	25.546	
537.400	21.497	
537.500	18.222	
537.600	32.433	
537.700	19.501	
537.800	28.226	
537.900	18.233	
538.000	20.123	
538.100	16.032	
538.200	27.503	
538.300	17.076	
538.400	36.724	
538.500	19.520	
538.600	14.363	
538.700	12.389	
538.800	16.536	
538.900	23.920	
539.000	26.697	
539.100	18.570	
539.200	25.759	
539.300	15.311	
539.400	20.755	
539.500	19.359	
539.600	18.989	
539.700	35.307	
539.800	30.253	
539.900	24.529	
540.000	13.492	
540.100	12.401	
540.200	18.675	
540.300	23.040	
540.400	15.752	
540.500	16.029	
540.600	17.363	
540.700	-9.874	
540.800	12.801	
540.900	11.229	
541.000	42.244	
541.100	22.981	
541.200	14.731	
541.300	6.433	
541.400	-0.664	
541.500	19.222	
541.600	25.387	
541.700	14.352	
541.800	21.425	
541.900	-4.576	
542.000	8.872	
542.100	1.430	
542.200	14.392	
542.300	12.701	
542.400	16.292	
542.500	27.212	
542.600	1.011	
542.700	2.513	
542.800	-7.511	
542.900	18.089	
543.000	18.977	
543.100	6.826	
543.200	14.189	
543.300	3.842	
543.400	20.231	
543.500	4.443	
543.600	-10.420	
543.700	0.410	
543.800	-13.844	
543.900	6.086	
544.000	1.695	
544.100	15.122	
544.200	-15.451	
544.300	17.463	
544.400	19.661	
544.500	0.084	
544.600	8.295	
544.700	20.883	
544.800	-18.773	
544.900	-0.208	
545.000	6.175	
545.100	7.622	
545.200	5.343	
545.300	1.260	
545.400	-4.455	
545.500	-2.722	
545.600	-17.851	
545.700	4.414	
545.800	-12.654	
545.900	2.027	
546.000	3.427	
546.100	2.972	
546.200	-11.891	
546.300	1.192	
546.400	3.198	
546.500	8.809	
546.600	-17.100	
546.700	-1.492	
546.800	2.666	
546.900	-4.900	
547.000	4.385	
547.100	0.483	
547.200	-11.037	
547.300	-8.296	
547.400	0.479	
547.500	-3.054	
547.600	-5.209	
547.700	7.135	
547.800	-6.026	
547.900	-12.015	
548.000	-3.332	
548.100	-6.961	
548.200	-5.308	
548.300	-1.935	
548.400	2.539	
548.500	-12.347	
548.600	-17.997	
548.700	-15.213	
548.800	-3.126	
548.900	-10.629	
549.000	-18.953	
549.100	-15.636	
549.200	-19.288	
549.300	3.859	
549.400	-17.213	
549.500	-26.774	
549.600	-27.180	
549.700	-0.830	
549.800	-14.194	
549.900	0.749	
550.000	-16.163	
550.100	-12.400	
550.200	8.719	
550.300	-32.173	
550.400	-28.834	
550.500	2.707	
550.600	0.283	
550.700	-6.190	
550.800	-31.626	
550.900	4.058	
551.000	-9.989	
551.100	-17.886	
551.200	-9.969	
551.300	-5.941	
551.400	-24.644	
551.500	-31.541	
551.600	-11.486	
551.700	-0.295	
551.800	-9.751	
551.900	-8.560	
552.000	-13.371	
552.100	-27.856	
552.200	-11.391	
552.300	-20.556	
552.400	-7.956	
552.500	-12.899	
552.600	-12.695	
552.700	-7.600	
552.800	-20.641	
552.900	-14.863	
553.000	-17.341	
553.100	-34.715	
553.200	-28.550	
553.300	-17.558	
553.400	-5.211	
553.500	-24.887	
553.600	-14.560	
553.700	-17.246	
553.800	-20.048	
553.900	-29.166	
554.000	-5.011	
554.100	-11.743	
554.200	-9.537	
554.300	-11.543	
554.400	-11.963	
554.500	-22.813	
554.600	-10.360	
554.700	-24.232	
554.800	-32.257	
554.900	-11.008	
555.000	-3.705	
555.100	-22.062	
555.200	-7.872	
555.300	-7.876	
555.400	-12.554	
555.500	-30.159	
555.600	-4.376	
555.700	-13.601	
555.800	-7.064	
555.900	-17.796	
556.000	-26.344	
556.100	-9.457	
556.200	-19.923	
556.300	-2.539	
556.400	-3.008	
556.500	-13.285	
556.600	-16.871	
556.700	-14.779	
556.800	-13.197	
556.900	-18.445	
557.000	-4.993	
557.100	-27.650	
557.200	-22.342	
557.300	-34.012	
557.400	-21.624	
557.500	-8.814	
557.600	-14.551	
557.700	-18.280	
557.800	-11.175	
557.900	-13.722	
558.000	-7.612	
558.100	-18.930	
558.200	-28.519	
558.300	-5.422	
558.400	-14.230	
558.500	-25.587	
558.600	-34.746	
558.700	-10.878	
558.800	-12.240	
558.900	-10.952	
559.000	-23.941	
559.100	-17.224	
559.200	-16.858	
559.300	-1.958	
559.400	-5.695	
559.500	-23.579	
559.600	-11.448	
559.700	-28.149	
559.800	-8.446	
559.900	-13.815	
560.000	-17.846	
560.100	-35.562	
560.200	-20.583	
560.300	-6.273	
560.400	-2.967	
560.500	-5.962	
560.600	-20.302	
560.700	-13.999	
560.800	-10.327	
560.900	-13.715	
561.000	-1.657	
561.100	-28.693	
561.200	2.632	
561.300	-12.005	
561.400	-11.769	
561.500	-26.902	
561.600	-6.089	
561.700	-16.787	
561.800	-12.054	
561.900	-35.627	
562.000	-15.848	
562.100	-23.398	
562.200	-25.763	
562.300	-36.398	
562.400	-8.843	
562.500	-8.455	
562.600	-16.182	
562.700	-11.358	
562.800	4.425	
562.900	-19.175	
563.000	-14.402	
563.100	-6.882	
563.200	-16.948	
563.300	-1.498	
563.400	-21.837	
563.500	-25.752	
563.600	-8.983	
563.700	-12.385	
563.800	-20.404	
563.900	-8.822	
564.000	-13.539	
564.100	-6.487	
564.200	-25.883	
564.300	3.303	
564.400	1.427	
564.500	-22.011	
564.600	-28.423	
564.700	-19.795	
564.800	-9.506	
564.900	-17.374	
565.000	0.558	
565.100	-4.005	
565.200	-1.453	
565.300	-25.091	
565.400	17.359	
565.500	-0.670	
565.600	-16.765	
565.700	-20.939	
565.800	-28.621	
565.900	6.919	
566.000	-21.044	
566.100	-12.818	
566.200	-2.072	
566.300	-10.641	
566.400	-1.987	
566.500	-20.779	
566.600	-25.836	
566.700	-9.136	
566.800	2.562	
566.900	-5.938	
567.000	-17.628	
567.100	-10.965	
567.200	-3.379	
567.300	-8.739	
567.400	-28.419	
567.500	-27.568	
567.600	-1.196	
567.700	-15.355	
567.800	-26.752	
567.900	16.439	
568.000	0.595	
568.100	2.878	
568.200	-0.719	
568.300	-7.647	
568.400	-11.623	
568.500	-12.634	
568.600	-27.955	
568.700	-19.006	
568.800	-2.892	
568.900	-14.862	
569.000	-4.933	
569.100	-11.932	
569.200	-12.852	
569.300	-3.892	
569.400	-11.117	
569.500	-5.953	
569.600	-17.718	
569.700	-17.155	
569.800	-4.977	
569.900	-6.197	
570.000	-25.048	
570.100	-0.390	
570.200	6.735	
570.300	-13.715	
570.400	-1.248	
570.500	-11.039	
570.600	-13.782	
570.700	-18.914	
570.800	-13.350	
570.900	-13.221	
571.000	1.294	
571.100	-18.878	
571.200	-10.641	
571.300	2.370	
571.400	-16.252	
571.500	-5.017	
571.600	-20.423	
571.700	-31.232	
571.800	12.366	
571.900	-9.255	
572.000	-4.966	
572.100	-8.878	
572.200	-11.619	
572.300	-14.865	
572.400	-19.073	
572.500	9.293	
572.600	5.479	
572.700	-19.178	
572.800	-13.388	
572.900	-22.522	
573.000	-20.766	
573.100	-11.459	
573.200	-23.305	
573.300	10.392	
573.400	-17.839	
573.500	-25.752	
573.600	-31.543	
573.700	-20.284	
573.800	-25.605	
573.900	-2.375	
574.000	-20.273	
574.100	-9.665	
574.200	-9.632	
574.300	-22.866	
574.400	-13.959	
574.500	-17.870	
574.600	-22.818	
574.700	8.776	
574.800	-20.960	
574.900	-21.870	
575.000	0.145	
575.100	15.985	
575.200	7.379	
575.300	-14.911	
575.400	-11.905	
575.500	11.028	
575.600	-22.825	
575.700	-24.227	
575.800	-10.278	
575.900	3.786	
576.000	-13.569	
576.100	-4.253	
576.200	-28.194	
576.300	-6.841	
576.400	-20.246	
576.500	-6.881	
576.600	-2.063	
576.700	-3.316	
576.800	-3.516	
576.900	-31.621	
577.000	-14.280	
577.100	-8.176	
577.200	2.752	
577.300	-12.545	
577.400	-14.554	
577.500	-10.531	
577.600	8.288	
577.700	-8.669	
577.800	-14.478	
577.900	-7.191	
578.000	-2.865	
578.100	-0.063	
578.200	-9.038	
578.300	-8.700	
578.400	-26.716	
578.500	-14.738	
578.600	-1.429	
578.700	-17.391	
578.800	-0.213	
578.900	-4.121	
579.000	-12.382	
579.100	-5.695	
579.200	-8.491	
579.300	-10.462	
579.400	-19.822	
579.500	4.878	
579.600	-10.450	
579.700	-18.427	
579.800	2.703	
579.900	-23.486	
580.000	-14.345	
580.100	1.822	
580.200	2.714	
580.300	-9.751	
580.400	-3.914	
580.500	-24.956	
580.600	-15.944	
580.700	-6.706	
580.800	-18.982	
580.900	-9.273	
581.000	-6.802	
581.100	-14.939	
581.200	-1.476	
581.300	-15.444	
581.400	-17.996	
581.500	-8.961	
581.600	-14.298	
581.700	3.204	
581.800	2.319	
581.900	-6.598	
582.000	-19.354	
582.100	-4.180	
582.200	3.347	
582.300	-32.379	
582.400	5.351	
582.500	-15.995	
582.600	-6.659	
582.700	-10.606	
582.800	-2.616	
582.900	-5.461	
583.000	-14.568	
583.100	-3.231	
583.200	-20.753	
583.300	-15.427	
583.400	11.181	
583.500	-16.787	
583.600	-25.597	
583.700	-12.998	
583.800	-19.589	
583.900	-12.175	
584.000	5.501	
584.100	0.150	
584.200	12.818	
584.300	-0.501	
584.400	-19.056	
584.500	-6.601	
584.600	-2.445	
584.700	-13.971	
584.800	0.220	
584.900	-7.313	
585.000	-14.790	
585.100	3.856	
585.200	-16.075	
585.300	-21.937	
585.400	-21.173	
585.500	3.929	
585.600	-12.521	
585.700	-10.629	
585.800	-13.763	
585.900	-9.649	
586.000	-15.947	
586.100	-16.550	
586.200	-7.190	
586.300	-11.167	
586.400	-6.356	
586.500	-7.508	
586.600	-4.275	
586.700	-11.619	
586.800	-2.304	
586.900	-5.692	
587.000	-12.950	
587.100	-20.114	
587.200	-9.542	
587.300	2.531	
587.400	-10.325	
587.500	-18.711	
587.600	3.326	
587.700	-3.845	
587.800	-5.450	
587.900	-19.746	
588.000	-23.916	
588.100	-2.569	
588.200	-6.557	
588.300	1.648	
588.400	-26.459	
588.500	-3.697	
588.600	-4.396	
588.700	2.214	
588.800	-13.076	
588.900	-23.619	
589.000	2.084	
589.100	-2.520	
589.200	-21.540	
589.300	-9.100	
589.400	9.424	
589.500	-17.563	
589.600	-17.136	
589.700	-10.078	
589.800	-8.488	
589.900	-23.213	
590.000	-11.485	
590.100	-11.710	
590.200	6.987	
590.300	-9.966	
590.400	-21.182	
590.500	1.872	
590.600	-18.015	
590.700	-2.898	
590.800	-10.966	
590.900	-24.133	
591.000	-22.333	
591.100	4.618	
591.200	-21.868	
591.300	14.151	
591.400	-9.502	
591.500	-14.663	
591.600	-23.330	
591.700	2.074	
591.800	-17.037	
591.900	-0.689	
592.000	3.317	
592.100	-3.636	
592.200	-3.613	
592.300	-6.242	
592.400	-5.941	
592.500	-7.810	
592.600	-6.541	
592.700	0.080	
592.800	4.055	
592.900	-11.076	
593.000	-12.578	
593.100	6.731	
593.200	-1.567	
593.300	-12.423	
593.400	-4.165	
593.500	-19.909	
593.600	7.903	
593.700	-5.002	
593.800	-9.825	
593.900	-14.585	
594.000	-11.541	
594.100	-15.433	
594.200	-10.588	
594.300	-20.128	
594.400	-24.265	
594.500	-6.589	
594.600	-0.119	
594.700	-11.139	
594.800	1.443	
594.900	-10.360	
595.000	6.915	
595.100	0.021	
595.200	-12.641	
595.300	-11.456	
595.400	-15.863	
595.500	-3.533	
595.600	-3.603	
595.700	-12.431	
595.800	15.715	
595.900	-17.698	
596.000	-5.133	
596.100	-7.063	
596.200	-21.285	
596.300	-7.566	
596.400	-9.503	
596.500	-8.989	
596.600	-3.532	
596.700	6.129	
596.800	-10.883	
596.900	-24.824	
597.000	9.414	
597.100	-9.601	
597.200	-15.552	
597.300	-17.428	
597.400	-8.075	
597.500	-10.254	
597.600	-9.724	
597.700	-2.797	
597.800	-13.301	
597.900	-11.685	
598.000	-24.510	
598.100	6.250	
598.200	3.489	
598.300	-20.308	
598.400	-3.505	
598.500	-25.868	
598.600	-13.139	
598.700	-10.950	
598.800	-16.915	
598.900	-1.682	
599.000	-1.681	
599.100	-21.485	
599.200	-27.016	
599.300	-5.670	
599.400	17.352	
599.500	-8.551	
599.600	-6.501	
599.700	-35.537	
599.800	3.310	
599.900	-5.554	
600.000	-13.213	
600.100	-4.580	
600.200	-4.237	
600.300	-2.852	
600.400	-16.737	
600.500	-2.529	
600.600	-15.545	
600.700	-4.559	
600.800	-14.224	
600.900	-18.688	
601.000	-19.078	
601.100	0.223	
601.200	1.415	
601.300	-29.034	
601.400	-2.364	
601.500	-36.822	
601.600	3.142	
601.700	21.707	
601.800	-2.381	
601.900	-12.968	
602.000	8.133	
602.100	-29.761	
602.200	-7.392	
602.300	-2.100	
602.400	-7.900	
602.500	-5.958	
602.600	-1.963	
602.700	-11.168	
602.800	-8.202	
602.900	-2.557	
603.000	-8.558	
603.100	-19.892	
603.200	19.607	
603.300	-0.260	
603.400	9.339	
603.500	-7.088	
603.600	-2.990	
603.700	-3.581	
603.800	-11.153	
603.900	-11.892	
604.000	-4.230	
604.100	-15.225	
604.200	-10.563	
604.300	2.651	
604.400	1.266	
604.500	-4.852	
604.600	-5.571	
604.700	9.581	
604.800	15.824	
604.900	-17.638	
605.000	-11.548	
605.100	-14.767	
605.200	-8.030	
605.300	-1.914	
605.400	14.009	
605.500	-14.865	
605.600	-22.208	
605.700	-15.114	
605.800	5.144	
605.900	3.031	
606.000	-11.720	
606.100	-10.872	
606.200	-1.175	
606.300	-18.254	
606.400	10.603	
606.500	6.643	
606.600	-22.258	
606.700	3.591	
606.800	-6.756	
606.900	-10.903	
607.000	-3.697	
607.100	-7.424	
607.200	6.189	
607.300	1.810	
607.400	-7.647	
607.500	2.473	
607.600	0.238	
607.700	0.654	
607.800	-11.929	
607.900	-2.081	
608.000	-5.585	
608.100	-3.804	
608.200	-12.870	
608.300	0.630	
608.400	-1.717	
608.500	-9.430	
608.600	-10.298	
608.700	-24.193	
608.800	7.346	
608.900	-4.761	
609.000	-0.898	
609.100	-2.362	
609.200	-14.210	
609.300	-10.660	
609.400	-6.737	
609.500	4.194	
609.600	-10.168	
609.700	-3.229	
609.800	-17.904	
609.900	-3.267	
610.000	7.709	
610.100	-0.675	
610.200	-13.101	
610.300	-3.300	
610.400	9.946	
610.500	-5.787	
610.600	-12.857	
610.700	-2.453	
610.800	-6.597	
610.900	5.947	
611.000	6.121	
611.100	-5.687	
611.200	0.774	
611.300	-6.924	
611.400	-6.000	
611.500	-11.896	
611.600	-8.718	
611.700	-2.757	
611.800	6.346	
611.900	-1.006	
612.000	2.821	
612.100	5.368	
612.200	-20.582	
612.300	-3.040	
612.400	8.352	
612.500	-6.094	
612.600	6.974	
612.700	-24.058	
612.800	-16.870	
612.900	6.337	
613.000	3.289	
613.100	5.650	
613.200	6.978	
613.300	-27.975	
613.400	-4.188	
613.500	-6.161	
613.600	7.142	
613.700	-6.434	
613.800	5.104	
613.900	-19.571	
614.000	-8.069	
614.100	4.908	
614.200	18.601	
614.300	-6.154	
614.400	-5.356	
614.500	8.393	
614.600	-11.328	
614.700	-3.564	
614.800	-3.535	
614.900	7.596	
615.000	-6.400	
615.100	0.309	
615.200	-6.626	
615.300	8.726	
615.400	-15.271	
615.500	-13.905	
615.600	13.267	
615.700	6.888	
615.800	-7.053	
615.900	-6.768	
616.000	-4.519	
616.100	12.985	
616.200	-1.634	
616.300	-12.059	
616.400	3.587	
616.500	6.052	
616.600	-3.105	
616.700	7.929	
616.800	-7.960	
616.900	-8.870	
617.000	-10.111	
617.100	5.635	
617.200	2.432	
617.300	3.725	
617.400	11.443	
617.500	13.941	
617.600	-2.829	
617.700	-5.965	
617.800	-15.630	
617.900	5.306	
618.000	10.386	
618.100	2.314	
618.200	15.429	
618.300	-13.004	
618.400	-0.931	
618.500	-4.239	
618.600	4.855	
618.700	7.714	
618.800	-0.586	
618.900	-20.844	
619.000	11.590	
619.100	-6.355	
619.200	10.333	
619.300	4.288	
619.400	-0.193	
619.500	2.441	
619.600	15.776	
619.700	0.404	
619.800	-4.806	
619.900	4.862	
620.000	-7.673	
620.100	-10.876	
620.200	-6.991	
620.300	14.427	
620.400	1.553	
620.500	3.984	
620.600	-7.219	
620.700	0.736	
620.800	-23.632	
620.900	11.085	
621.000	18.184	
621.100	4.484	
621.200	-1.827	
621.300	0.751	
621.400	-0.527	
621.500	5.557	
621.600	-3.715	
621.700	4.751	
621.800	-11.184	
621.900	-8.784	
622.000	0.832	
622.100	-11.902	
622.200	4.418	
622.300	9.341	
622.400	-12.510	
622.500	-3.710	
622.600	-11.316	
622.700	5.539	
622.800	-11.977	
622.900	8.044	
623.000	-2.785	
623.100	6.459	
623.200	-10.189	
623.300	-0.477	
623.400	0.193	
623.500	-13.846	
623.600	1.598	
623.700	2.944	
623.800	7.158	
623.900	-4.918	
624.000	3.271	
624.100	1.545	
624.200	-1.357	
624.300	4.188	
624.400	1.777	
624.500	-7.865	
624.600	-10.171	
624.700	-14.084	
624.800	-1.536	
624.900	-4.115	
625.000	0.846	
625.100	2.372	
625.200	8.496	
625.300	1.688	
625.400	-3.772	
625.500	-8.722	
625.600	-13.620	
625.700	5.011	
625.800	-2.364	
625.900	-4.869	
626.000	-13.766	
626.100	18.163	
626.200	-12.104	
626.300	-15.082	
626.400	-7.750	
626.500	-12.986	
626.600	-2.388	
626.700	-3.521	
626.800	-0.300	
626.900	-8.048	
627.000	-19.586	
627.100	9.431	
627.200	-1.399	
627.300	0.040	
627.400	-3.201	
627.500	-4.359	
627.600	5.484	
627.700	-3.703	
627.800	-12.620	
627.900	2.050	
628.000	8.552	
628.100	-0.295	
628.200	1.960	
628.300	6.747	
628.400	4.476	
628.500	-8.521	
628.600	0.818	
628.700	-7.539	
628.800	-0.027	
628.900	-11.920	
629.000	12.765	
629.100	12.355	
629.200	12.708	
629.300	2.264	
629.400	-1.248	
629.500	-14.634	
629.600	6.221	
629.700	-7.458	
629.800	2.066	
629.900	-1.455	
630.000	-1.433	
630.100	1.171	
630.200	4.383	
630.300	-1.947	
630.400	5.384	
630.500	7.288	
630.600	3.034	
630.700	3.260	
630.800	-1.205	
630.900	-1.589	
631.000	20.580	
631.100	23.474	
631.200	14.120	
631.300	17.237	
631.400	19.664	
631.500	11.819	
631.600	-4.024	
631.700	26.926	
631.800	7.221	
631.900	23.576	
632.000	14.112	
632.100	11.651	
632.200	-6.807	
632.300	26.686	
632.400	23.856	
632.500	18.303	
632.600	26.015	
632.700	30.135	
632.800	32.270	
632.900	28.727	
633.000	13.519	
633.100	40.872	
633.200	37.173	
633.300	38.100	
633.400	9.055	
633.500	17.823	
633.600	22.521	
633.700	37.661	
633.800	11.091	
633.900	36.797	
634.000	30.698	
634.100	7.415	
634.200	22.783	
634.300	44.347	
634.400	34.016	
634.500	24.595	
634.600	15.607	
634.700	38.975	
634.800	28.731	
634.900	39.228	
635.000	11.753	
635.100	29.225	
635.200	31.374	
635.300	30.559	
635.400	25.279	
635.500	24.377	
635.600	33.698	
635.700	11.531	
635.800	28.204	
635.900	16.862	
636.000	20.844	
636.100	28.022	
636.200	29.196	
636.300	28.666	
636.400	36.664	
636.500	29.009	
636.600	33.102	
636.700	32.124	
636.800	27.226	
636.900	37.518	
637.000	31.359	
637.100	38.893	
637.200	39.831	
637.300	31.595	
637.400	32.395	
637.500	17.037	
637.600	19.096	
637.700	17.126	
637.800	41.185	
637.900	55.901	
638.000	26.296	
638.100	18.831	
638.200	24.770	
638.300	17.516	
638.400	32.699	
638.500	38.872	
638.600	6.308	
638.700	23.158	
638.800	12.864	
638.900	22.494	
639.000	39.005	
639.100	16.339	
639.200	42.925	
639.300	28.623	
639.400	35.976	
639.500	26.358	
639.600	25.235	
639.700	33.962	
639.800	10.368	
639.900	12.478	
640.000	16.480	
640.100	40.668	
640.200	2.648	
640.300	21.004	
640.400	40.348	
640.500	23.371	
640.600	28.308	
640.700	24.437	
640.800	13.177	
640.900	33.050	
641.000	43.552	
641.100	24.039	
641.200	30.351	
641.300	22.167	
641.400	24.157	
641.500	17.199	
641.600	2.445	
641.700	37.708	
641.800	36.321	
641.900	16.559	
642.000	26.246	
642.100	15.417	
642.200	44.700	
642.300	19.209	
642.400	31.395	
642.500	22.680	
642.600	19.420	
642.700	25.805	
642.800	17.403	
642.900	17.819	
643.000	22.937	
643.100	23.751	
643.200	38.478	
643.300	25.907	
643.400	28.666	
643.500	27.207	
643.600	19.515	
643.700	25.226	
643.800	22.616	
643.900	18.665	
644.000	23.038	
644.100	37.181	
644.200	25.368	
644.300	26.274	
644.400	36.703	
644.500	25.620	
644.600	36.850	
644.700	24.223	
644.800	30.067	
644.900	35.301	
645.000	26.726	
645.100	11.121	
645.200	33.767	
645.300	35.014	
645.400	24.139	
645.500	35.162	
645.600	37.304	
645.700	15.910	
645.800	27.407	
645.900	16.393	
646.000	22.071	
646.100	18.889	
646.200	34.438	
646.300	14.940	
646.400	28.333	
646.500	34.140	
646.600	16.818	
646.700	35.799	
646.800	25.981	
646.900	16.651	
647.000	21.839	
647.100	29.877	
647.200	24.804	
647.300	24.614	
647.400	32.689	
647.500	25.161	
647.600	10.126	
647.700	17.324	
647.800	30.661	
647.900	36.409	
648.000	18.529	
648.100	10.672	
648.200	14.554	
648.300	43.365	
648.400	15.961	
648.500	23.971	
648.600	0.547	
648.700	30.910	
648.800	34.214	
648.900	25.545	
649.000	11.210	
649.100	18.453	
649.200	34.583	
649.300	14.600	
649.400	20.858	
649.500	32.979	
649.600	24.228	
649.700	38.185	
649.800	30.300	
649.900	17.251	
650.000	13.882	
650.100	30.053	
650.200	29.481	
650.300	13.081	
650.400	38.255	
650.500	20.388	
650.600	16.273	
650.700	21.402	
650.800	29.354	
650.900	22.400	
651.000	12.115	
651.100	25.678	
651.200	27.663	
651.300	8.050	
651.400	27.136	
651.500	13.885	
651.600	35.646	
651.700	20.458	
651.800	25.400	
651.900	24.372	
652.000	4.383	
652.100	28.296	
652.200	10.958	
652.300	16.661	
652.400	2.452	
652.500	11.931	
652.600	19.894	
652.700	37.525	
652.800	22.208	
652.900	27.536	
653.000	31.281	
653.100	29.225	
653.200	27.188	
653.300	4.582	
653.400	39.130	
653.500	22.447	
653.600	10.643	
653.700	16.217	
653.800	33.160	
653.900	11.095	
654.000	25.197	
654.100	30.062	
654.200	30.350	
654.300	16.989	
654.400	35.926	
654.500	22.782	
654.600	24.588	
654.700	33.393	
654.800	11.093	
654.900	11.206	
655.000	10.252	
655.100	2.071	
655.200	37.395	
655.300	33.432	
655.400	20.352	
655.500	30.726	
655.600	18.995	
655.700	27.433	
655.800	7.139	
655.900	16.334	
656.000	22.451	
656.100	34.567	
656.200	16.040	
656.300	29.121	
656.400	30.535	
656.500	26.565	
656.600	18.090	
656.700	25.850	
656.800	22.673	
656.900	23.781	
657.000	20.027	
657.100	17.150	
657.200	17.998	
657.300	33.916	
657.400	22.198	
657.500	35.358	
657.600	27.655	
657.700	9.442	
657.800	23.774	
657.900	25.336	
658.000	11.811	
658.100	18.534	
658.200	29.816	
658.300	35.121	
658.400	26.058	
658.500	33.725	
658.600	22.696	
658.700	14.825	
658.800	19.037	
658.900	28.612	
659.000	19.168	
659.100	31.095	
659.200	8.455	
659.300	24.621	
659.400	25.587	
659.500	11.922	
659.600	31.961	
659.700	15.731	
659.800	37.100	
659.900	16.432	
660.000	13.551	
660.100	26.760	
660.200	26.676	
660.300	37.188	
660.400	16.098	
660.500	23.156	
660.600	19.950	
660.700	18.835	
660.800	19.984	
660.900	24.870	
661.000	9.074	
661.100	31.559	
661.200	36.658	
661.300	11.856	
661.400	29.185	
661.500	31.461	
661.600	37.968	
661.700	9.617	
661.800	37.198	
661.900	9.018	
662.000	26.401	
662.100	35.429	
662.200	25.534	
662.300	20.721	
662.400	37.077	
662.500	20.265	
662.600	30.786	
662.700	30.488	
662.800	33.262	
662.900	17.809	
663.000	5.617	
663.100	25.098	
663.200	21.929	
663.300	28.108	
663.400	13.878	
663.500	19.288	
663.600	7.324	
663.700	22.007	
663.800	27.705	
663.900	14.308	
664.000	44.681	
664.100	30.207	
664.200	15.395	
664.300	26.212	
664.400	27.527	
664.500	23.950	
664.600	19.445	
664.700	23.780	
664.800	18.227	
664.900	30.561	
665.000	11.906	
665.100	38.231	
665.200	17.715	
665.300	25.672	
665.400	13.025	
665.500	33.024	
665.600	26.676	
665.700	-0.152	
665.800	28.708	
665.900	22.902	
666.000	24.410	
666.100	17.967	
666.200	40.864	
666.300	12.696	
666.400	22.514	
666.500	13.942	
666.600	12.821	
666.700	20.442	
666.800	18.753	
666.900	8.225	
667.000	27.862	
667.100	37.946	
667.200	12.578	
667.300	16.821	
667.400	27.410	
667.500	34.285	
667.600	-6.954	
667.700	28.623	
667.800	15.614	
667.900	30.352	
668.000	21.842	
668.100	21.256	
668.200	18.864	
668.300	22.615	
668.400	-5.674	
668.500	31.613	
668.600	26.435	
668.700	21.445	
668.800	21.347	
668.900	19.387	
669.000	15.114	
669.100	29.204	
669.200	26.317	
669.300	19.242	
669.400	30.733	
669.500	10.495	
669.600	28.624	
669.700	28.598	
669.800	26.924	
669.900	4.701	
670.000	24.141	
670.100	23.562	
670.200	20.431	
670.300	39.732	
670.400	8.791	
670.500	21.485	
670.600	2.447	
670.700	26.681	
670.800	33.465	
670.900	28.609	
671.000	5.044	
671.100	43.510	
671.200	21.182	
671.300	20.462	
671.400	18.984	
671.500	22.115	
671.600	19.872	
671.700	25.624	
671.800	12.435	
671.900	41.077	
672.000	25.786	
672.100	5.258	
672.200	28.239	
672.300	5.485	
672.400	21.945	
672.500	24.680	
672.600	15.868	
672.700	29.317	
672.800	6.032	
672.900	16.051	
673.000	29.064	
673.100	5.791	
673.200	5.616	
673.300	30.485	
673.400	22.701	
673.500	15.797	
673.600	13.714	
673.700	16.344	
673.800	6.928	
673.900	26.251	
674.000	29.678	
674.100	14.122	
674.200	26.014	
674.300	29.004	
674.400	33.222	
674.500	22.744	
674.600	22.064	
674.700	18.331	
674.800	24.768	
674.900	13.818	
675.000	30.808	
675.100	-2.697	
675.200	29.459	
675.300	30.379	
675.400	-0.478	
675.500	34.165	
675.600	22.892	
675.700	26.734	
675.800	-1.631	
675.900	40.110	
676.000	16.769	
676.100	20.288	
676.200	26.352	
676.300	14.059	
676.400	23.416	
676.500	5.629	
676.600	11.681	
676.700	17.983	
676.800	24.695	
676.900	19.835	
677.000	18.587	
677.100	26.382	
677.200	14.386	
677.300	17.033	
677.400	17.744	
677.500	26.550	
677.600	24.834	
677.700	28.931	
677.800	15.147	
677.900	17.908	
678.000	24.100	
678.100	21.336	
678.200	0.471	
678.300	27.599	
678.400	18.319	
678.500	24.471	
678.600	25.620	
678.700	17.114	
678.800	18.932	
678.900	21.330	
679.000	23.393	
679.100	24.842	
679.200	23.072	
679.300	28.346	
679.400	30.139	
679.500	23.173	
679.600	12.828	
679.700	12.636	
679.800	14.384	
679.900	24.591	
680.000	20.871	
680.100	15.540	
680.200	11.443	
680.300	32.321	
680.400	8.960	
680.500	10.832	
680.600	17.536	
680.700	21.887	
680.800	13.358	
680.900	32.526	
681.000	15.084	
681.100	25.365	
681.200	11.094	
681.300	27.019	
681.400	25.865	
681.500	19.294	
681.600	21.713	
681.700	21.164	
681.800	-1.982	
681.900	43.663	
682.000	19.900	
682.100	24.235	
682.200	18.157	
682.300	12.109	
682.400	25.824	
682.500	11.570	
682.600	16.126	
682.700	4.260	
682.800	42.271	
682.900	28.020	
683.000	25.366	
683.100	31.382	
683.200	14.008	
683.300	19.852	
683.400	10.200	
683.500	24.786	
683.600	15.435	
683.700	34.390	
683.800	18.508	
683.900	9.452	
684.000	12.440	
684.100	22.186	
684.200	16.511	
684.300	20.167	
684.400	23.837	
684.500	21.210	
684.600	21.109	
684.700	23.000	
684.800	7.765	
684.900	13.400	
685.000	1.053	
685.100	29.032	
685.200	13.884	
685.300	16.317	
685.400	21.661	
685.500	21.507	
685.600	23.802	
685.700	6.245	
685.800	10.700	
685.900	2.215	
686.000	33.063	
686.100	22.098	
686.200	12.677	
686.300	8.301	
686.400	16.932	
686.500	12.928	
686.600	9.645	
686.700	26.253	
686.800	27.320	
686.900	19.387	
687.000	18.900	
687.100	28.720	
687.200	27.887	
687.300	38.379	
687.400	-5.118	
687.500	16.950	
687.600	24.494	
687.700	20.578	
687.800	12.955	
687.900	12.643	
688.000	16.498	
688.100	14.197	
688.200	25.793	
688.300	11.101	
688.400	25.998	
688.500	15.967	
688.600	26.223	
688.700	23.775	
688.800	2.847	
688.900	20.553	
689.000	1.262	
689.100	27.793	
689.200	26.231	
689.300	6.004	
689.400	26.776	
689.500	9.662	
689.600	15.326	
689.700	32.765	
689.800	17.913	
689.900	20.466	
690.000	18.772	
690.100	14.694	
690.200	16.870	
690.300	13.521	
690.400	0.365	
690.500	50.858	
690.600	18.341	
690.700	9.463	
690.800	12.566	
690.900	11.194	
691.000	11.915	
691.100	25.196	
691.200	17.298	
691.300	-12.440	
691.400	-1.992	
691.500	10.004	
691.600	15.653	
691.700	15.291	
691.800	10.652	
691.900	6.583	
692.000	7.452	
692.100	13.758	
692.200	4.277	
692.300	-0.174	
692.400	0.590	
692.500	8.319	
692.600	17.507	
692.700	12.285	
692.800	7.820	
692.900	-7.134	
693.000	-9.021	
693.100	-1.992	
693.200	-1.518	
693.300	9.574	
693.400	3.805	
693.500	-6.424	
693.600	3.264	
693.700	4.238	
693.800	0.894	
693.900	-10.292	
694.000	3.213	
694.100	11.652	
694.200	2.596	
694.300	6.854	
694.400	9.388	
694.500	-2.113	
694.600	-2.344	
694.700	0.631	
694.800	-15.987	
694.900	-15.880	
695.000	12.797	
695.100	-3.541	
695.200	4.483	
695.300	-9.532	
695.400	-10.842	
695.500	7.203	
695.600	4.494	
695.700	-7.328	
695.800	-2.018	
695.900	-1.559	
696.000	-2.909	
696.100	3.334	
696.200	-11.767	
696.300	-7.289	
696.400	0.296	
696.500	-4.574	
696.600	-23.292	
696.700	1.212	
696.800	-10.110	
696.900	-3.346	
697.000	-17.538	
697.100	-19.163	
697.200	-11.644	
697.300	-4.096	
697.400	-15.900	
697.500	-7.428	
697.600	-12.636	
697.700	3.744	
697.800	9.788	
697.900	-14.038	
698.000	-10.636	
698.100	-12.881	
698.200	-14.161	
698.300	-3.355	
698.400	-14.237	
698.500	-5.497	
698.600	-32.236	
698.700	-24.235	
698.800	-6.931	
698.900	-8.634	
699.000	-16.043	
699.100	-13.766	
699.200	-11.223	
699.300	-9.996	
699.400	-24.076	
699.500	-1.392	
699.600	-7.906	
699.700	-4.149	
699.800	-3.458	
699.900	-24.203	
700.000	-6.598	
700.100	-16.579	
700.200	-21.363	
700.300	-8.420	
700.400	-2.025	
700.500	-12.913	
700.600	-7.984	
700.700	-27.930	
700.800	-18.110	
700.900	-43.084	
701.000	0.339	
701.100	-10.637	
701.200	-20.137	
701.300	-14.305	
701.400	-18.346	
701.500	-11.049	
701.600	-17.229	
701.700	-34.938	
701.800	-16.448	
701.900	-10.475	
702.000	-23.515	
702.100	5.715	
702.200	-26.097	
702.300	-15.386	
702.400	-19.993	
702.500	-5.871	
702.600	-25.237	
702.700	-23.340	
702.800	-25.730	
702.900	-5.335	
703.000	-34.101	
703.100	3.270	
703.200	-15.078	
703.300	-11.422	
703.400	-11.803	
703.500	-14.317	
703.600	-36.041	
703.700	-6.100	
703.800	-17.498	
703.900	-12.055	
704.000	-30.623	
704.100	-18.664	
704.200	-20.888	
704.300	-22.361	
704.400	-19.122	
704.500	-20.134	
704.600	-15.354	
704.700	-14.089	
704.800	-30.344	
704.900	-33.609	
705.000	-6.064	
705.100	-19.685	
705.200	-6.284	
705.300	-7.996	
705.400	-23.018	
705.500	-26.184	
705.600	-17.590	
705.700	-19.750	
705.800	-0.293	
705.900	-25.331	
706.000	-25.708	
706.100	-16.684	
706.200	-18.393	
706.300	-23.378	
706.400	-27.943	
706.500	-20.616	
706.600	-15.452	
706.700	-18.647	
706.800	-2.865	
706.900	-13.221	
707.000	-21.470	
707.100	-26.295	
707.200	1.320	
707.300	-30.230	
707.400	-7.135	
707.500	-26.086	
707.600	-11.939	
707.700	-33.595	
707.800	-15.709	
707.900	-19.181	
708.000	-28.092	
708.100	-7.868	
708.200	-22.266	
708.300	3.016	
708.400	-1.542	
708.500	-30.136	
708.600	-5.010	
708.700	-21.215	
708.800	-7.757	
708.900	-26.917	
709.000	-4.560	
709.100	-6.907	
709.200	-23.973	
709.300	-21.886	
709.400	-35.117	
709.500	3.143	
709.600	-18.876	
709.700	-14.697	
709.800	-23.506	
709.900	-18.747	
710.000	-12.239	
710.100	-17.801	
710.200	-26.196	
710.300	1.867	
710.400	-20.550	
710.500	-14.166	
710.600	-27.609	
710.700	-18.575	
710.800	-17.108	
710.900	-12.770	
711.000	-22.736	
711.100	-24.748	
711.200	-1.749	
711.300	-20.121	
711.400	-19.185	
711.500	-11.232	
711.600	-24.176	
711.700	-15.007	
711.800	-14.557	
711.900	-19.273	
712.000	6.393	
712.100	-22.947	
712.200	-35.570	
712.300	-23.994	
712.400	-6.223	
712.500	-14.033	
712.600	-16.225	
712.700	-31.107	
712.800	11.245	
712.900	-10.727	
713.000	-38.644	
713.100	1.398	
713.200	-10.234	
713.300	-25.994	
713.400	-10.062	
713.500	6.059	
713.600	-15.912	
713.700	-12.751	
713.800	-25.367	
713.900	-4.869	
714.000	-15.987	
714.100	-8.855	
714.200	-25.258	
714.300	-7.622	
714.400	-8.830	
714.500	-17.336	
714.600	-24.714	
714.700	-18.232	
714.800	-16.718	
714.900	4.823	
715.000	-24.125	
715.100	-18.357	
715.200	-21.275	
715.300	-11.179	
715.400	-2.061	
715.500	-14.451	
715.600	1.893	
715.700	-20.979	
715.800	-12.838	
715.900	-11.456	
716.000	-23.146	
716.100	-18.150	
716.200	-9.836	
716.300	-1.304	
716.400	-23.705	
716.500	-1.382	
716.600	-17.686	
716.700	-29.129	
716.800	0.260	
716.900	-15.430	
717.000	-9.555	
717.100	-8.521	
717.200	-26.548	
717.300	-24.871	
717.400	-3.025	
717.500	-6.491	
717.600	-14.027	
717.700	-5.568	
717.800	-3.204	
717.900	-12.728	
718.000	-24.284	
718.100	-17.925	
718.200	-13.747	
718.300	-36.139	
718.400	-20.378	
718.500	-1.555	
718.600	-25.463	
718.700	-11.722	
718.800	-14.624	
718.900	-17.644	
719.000	-12.330	
719.100	-7.482	
719.200	-19.368	
719.300	-19.820	
719.400	-10.573	
719.500	-3.718	
719.600	-10.038	
719.700	-39.429	
719.800	3.053	
719.900	-26.561	
720.000	-15.856	
720.100	-12.821	
720.200	-6.042	
720.300	-6.226	
720.400	-6.613	
720.500	-17.483	
720.600	-16.088	
720.700	-24.589	
720.800	16.440	
720.900	-20.665	
721.000	-14.768	
721.100	-6.639	
721.200	-6.777	
721.300	-32.810	
721.400	-11.016	
721.500	-15.202	
721.600	-8.840	
721.700	-8.719	
721.800	-18.414	
721.900	-19.661	
722.000	-12.828	
722.100	9.498	
722.200	-18.320	
722.300	-19.914	
722.400	5.984	
722.500	-11.285	
722.600	4.424	
722.700	-13.391	
722.800	-11.224	
722.900	-27.567	
723.000	-20.393	
723.100	-19.737	
723.200	-4.549	
723.300	10.992	
723.400	-12.643	
723.500	-13.675	
723.600	-26.085	
723.700	-10.605	
723.800	1.050	
723.900	-17.594	
724.000	-7.068	
724.100	-14.348	
724.200	-30.698	
724.300	-0.079	
724.400	-20.448	
724.500	-13.144	
724.600	-11.606	
724.700	-9.298	
724.800	-9.905	
724.900	0.971	
725.000	-8.951	
725.100	-19.858	
725.200	0.160	
725.300	-18.975	
725.400	-16.606	
725.500	-15.017	
725.600	-2.817	
725.700	-5.986	
725.800	5.323	
725.900	-14.694	
726.000	-11.709	
726.100	-3.501	
726.200	-0.985	
726.300	-7.856	
726.400	-13.850	
726.500	-10.243	
726.600	-15.845	
726.700	-26.303	
726.800	-5.469	
726.900	-15.030	
727.000	2.828	
727.100	-6.735	
727.200	-23.107	
727.300	-7.647	
727.400	-15.620	
727.500	2.961	
727.600	4.677	
727.700	-6.971	
727.800	-4.393	
727.900	-13.462	
728.000	-20.769	
728.100	-3.856	
728.200	-16.850	
728.300	-8.620	
728.400	-19.973	
728.500	-17.235	
728.600	-0.682	
728.700	-15.036	
728.800	-17.741	
728.900	10.589	
729.000	-12.606	
729.100	-14.800	
729.200	2.166	
729.300	-9.551	
729.400	9.631	
729.500	-20.373	
729.600	-14.335	
729.700	-12.242	
729.800	-9.020	
729.900	-5.618	
730.000	-8.653	
730.100	-17.735	
730.200	-0.753	
730.300	3.298	
730.400	-11.797	
730.500	-14.780	
730.600	-15.361	
730.700	-10.677	
730.800	-16.554	
730.900	-22.963	
731.000	-5.600	
731.100	-7.398	
731.200	2.630	
731.300	-16.773	
731.400	-8.050	
731.500	-22.617	
731.600	1.132	
731.700	-2.304	
731.800	-9.861	
731.900	-1.584	
732.000	-6.314	
732.100	-17.631	
732.200	-18.145	
732.300	-17.523	
732.400	-1.448	
732.500	-11.689	
732.600	-10.952	
732.700	-27.005	
732.800	-17.210	
732.900	-8.919	
733.000	3.499	
733.100	-15.389	
733.200	-7.723	
733.300	-13.145	
733.400	5.933	
733.500	4.370	
733.600	-1.849	
733.700	-14.168	
733.800	-20.917	
733.900	-18.617	
734.000	-13.170	
734.100	-9.723	
734.200	-5.742	
734.300	5.776	
734.400	-30.956	
734.500	1.276	
734.600	8.658	
734.700	-24.955	
734.800	-8.734	
734.900	-9.240	
735.000	-9.451	
735.100	-5.641	
735.200	9.720	
735.300	-19.772	
735.400	-14.884	
735.500	-17.424	
735.600	-15.327	
735.700	-1.405	
735.800	8.089	
735.900	4.862	
736.000	-7.993	
736.100	3.240	
736.200	1.573	
736.300	-14.608	
736.400	-19.608	
736.500	-20.064	
736.600	-1.036	
736.700	-1.200	
736.800	1.839	
736.900	-14.882	
737.000	2.601	
737.100	-4.015	
737.200	-2.551	
737.300	-15.660	
737.400	-5.186	
737.500	-8.821	
737.600	-1.644	
737.700	-5.953	
737.800	-14.707	
737.900	-25.293	
738.000	4.153	
738.100	3.345	
738.200	-14.630	
738.300	-8.566	
738.400	-0.485	
738.500	-14.121	
738.600	-5.238	
738.700	-11.111	
738.800	-5.269	
738.900	-17.120	
739.000	-11.709	
739.100	-7.776	
739.200	-8.881	
739.300	-8.441	
739.400	-8.490	
739.500	5.603	
739.600	-6.632	
739.700	-20.274	
739.800	3.523	
739.900	0.665	
740.000	-2.156	
740.100	-20.502	
740.200	5.616	
740.300	1.406	
740.400	-21.618	
740.500	-4.555	
740.600	-8.660	
740.700	4.385	
740.800	0.860	
740.900	-3.279	
741.000	5.371	
741.100	-6.091	
741.200	-18.693	
741.300	-5.500	
741.400	-2.752	
741.500	-12.918	
741.600	-7.402	
741.700	-5.818	
741.800	-21.770	
741.900	-3.566	
742.000	-6.379	
742.100	-11.393	
742.200	-11.688	
742.300	-1.681	
742.400	-5.361	
742.500	-7.909	
742.600	-3.560	
742.700	-23.128	
742.800	-7.851	
742.900	-26.019	
743.000	-0.093	
743.100	-23.042	
743.200	-0.337	
743.300	1.457	
743.400	-9.718	
743.500	4.372	
743.600	-0.273	
743.700	-2.789	
743.800	-15.312	
743.900	-37.294	
744.000	12.119	
744.100	-23.618	
744.200	-5.715	
744.300	-3.564	
744.400	-9.085	
744.500	4.567	
744.600	-4.482	
744.700	-17.325	
744.800	5.338	
744.900	5.759	
745.000	-27.423	
745.100	-10.491	
745.200	-8.667	
745.300	13.246	
745.400	0.273	
745.500	-12.704	
745.600	-3.317	
745.700	-9.059	
745.800	-5.489	
745.900	-26.517	
746.000	-3.894	
746.100	-3.780	
746.200	-2.875	
746.300	-6.704	
746.400	-0.974	
746.500	-0.371	
746.600	-7.149	
746.700	-34.196	
746.800	1.078	
746.900	17.181	
747.000	-10.479	
747.100	-3.814	
747.200	-13.528	
747.300	-2.842	
747.400	-4.985	
747.500	-7.651	
747.600	-4.331	
747.700	-16.596	
747.800	10.816	
747.900	6.187	
748.000	-5.146	
748.100	-2.158	
748.200	-13.117	
748.300	-2.797	
748.400	14.035	
748.500	-11.216	
748.600	-16.722	
748.700	-4.178	
748.800	-0.077	
748.900	-10.611	
749.000	1.691	
749.100	-22.093	
749.200	-18.028	
749.300	7.366	
749.400	-6.437	
749.500	-4.854	
749.600	-3.428	
749.700	10.731	
749.800	2.960	
749.900	-12.805	
750.000	-7.964	
750.100	4.236	
750.200	-7.016	
750.300	-2.125	
750.400	32.073	
750.500	1.856	
750.600	-16.761	
750.700	1.284	
750.800	-7.806	
750.900	-5.655	
751.000	-23.185	
751.100	22.635	
751.200	4.376	
751.300	9.570	
751.400	-6.896	
751.500	-9.277	
751.600	-8.134	
751.700	0.322	
751.800	-8.761	
751.900	-12.596	
752.000	5.141	
752.100	0.019	
752.200	6.877	
752.300	3.283	
752.400	-22.301	
752.500	8.268	
752.600	-4.144	
752.700	0.543	
752.800	-3.632	
752.900	-6.664	
753.000	-6.963	
753.100	5.662	
753.200	-17.317	
753.300	-4.998	
753.400	8.901	
753.500	8.724	
753.600	3.437	
753.700	-1.331	
753.800	0.259	
753.900	10.887	
754.000	6.023	
754.100	-10.810	
754.200	-12.792	
754.300	-7.365	
754.400	8.568	
754.500	-14.472	
754.600	-24.378	
754.700	21.547	
754.800	0.026	
754.900	4.360	
755.000	-1.326	
755.100	-17.815	
755.200	6.800	
755.300	10.729	
755.400	-27.911	
755.500	5.331	
755.600	-7.879	
755.700	-9.907	
755.800	2.747	
755.900	0.582	
756.000	-4.891	
756.100	-16.332	
756.200	-9.861	
756.300	-6.894	
756.400	7.471	
756.500	-12.897	
756.600	1.811	
756.700	6.322	
756.800	-3.625	
756.900	3.957	
757.000	-3.625	
757.100	-12.151	
757.200	5.029	
757.300	-18.872	
757.400	4.311	
757.500	-12.303	
757.600	17.024	
757.700	-18.393	
757.800	0.421	
757.900	13.996	
758.000	-0.849	
758.100	-6.385	
758.200	1.258	
758.300	-10.071	
758.400	-12.426	
758.500	5.605	
758.600	-22.198	
758.700	13.275	
758.800	-9.514	
758.900	4.765	
759.000	-3.234	
759.100	14.459	
759.200	7.061	
759.300	-13.283	
759.400	0.849	
759.500	-2.972	
759.600	-6.570	
759.700	-9.290	
759.800	20.142	
759.900	-4.674	
760.000	-1.648	
760.100	-11.241	
760.200	-6.770	
760.300	-5.131	
760.400	3.091	
760.500	17.626	
760.600	-27.268	
760.700	-12.365	
760.800	-1.141	
760.900	-12.464	
761.000	-9.245	
761.100	-22.707	
761.200	9.231	
761.300	7.305	
761.400	-5.206	
761.500	1.702	
761.600	12.879	
761.700	9.997	
761.800	-15.460	
761.900	-13.896	
762.000	20.990	
762.100	-22.438	
762.200	9.434	
762.300	-0.971	
762.400	-11.427	
762.500	-4.331	
762.600	-21.575	
762.700	-13.410	
762.800	25.525	
762.900	-20.157	
763.000	-3.706	
763.100	-9.297	
763.200	13.848	
763.300	3.495	
763.400	-6.887	
763.500	6.791	
763.600	-4.744	
763.700	2.139	
763.800	14.287	
763.900	-4.673	
764.000	-10.626	
764.100	11.562	
764.200	-13.407	
764.300	-9.178	
764.400	3.258	
764.500	0.184	
764.600	5.519	
764.700	-0.792	
764.800	-12.295	
764.900	-10.730	
765.000	13.730	
765.100	-8.693	
765.200	-23.251	
765.300	-19.914	
765.400	2.150	
765.500	-0.959	
765.600	9.746	
765.700	-4.612	
765.800	-11.486	
765.900	3.814	
766.000	0.089	
766.100	6.788	
766.200	-2.132	
766.300	-17.901	
766.400	1.732	
766.500	-1.517	
766.600	6.940	
766.700	-9.991	
766.800	-3.777	
766.900	-21.885	
767.000	6.580	
767.100	-13.175	
767.200	5.982	
767.300	-8.030	
767.400	1.266	
767.500	-16.729	
767.600	15.160	
767.700	-6.079	
767.800	-5.384	
767.900	3.490	
768.000	-9.457	
768.100	-12.091	
768.200	-8.259	
768.300	0.369	
768.400	9.160	
768.500	2.647	
768.600	-7.150	
768.700	-9.572	
768.800	-4.156	
768.900	2.486	
769.000	1.433	
769.100	0.678	
769.200	-16.161	
769.300	-14.902	
769.400	17.458	
769.500	-9.997	
769.600	18.867	
769.700	-0.590	
769.800	-14.146	
769.900	-8.848	
770.000	-0.782	
770.100	-4.858	
770.200	0.715	
770.300	22.282	
770.400	24.447	
770.500	5.011	
770.600	10.028	
770.700	-19.194	
770.800	-0.065	
770.900	-7.848	
771.000	-11.541	
771.100	-0.189	
771.200	26.226	
771.300	-0.795	
771.400	-26.403	
771.500	-3.180	
771.600	-5.917	
771.700	15.083	
771.800	-18.677	
771.900	-13.205	
772.000	3.207	
772.100	-4.225	
772.200	9.931	
772.300	-1.913	
772.400	-11.086	
772.500	-6.495	
772.600	10.994	
772.700	3.051	
772.800	1.354	
772.900	-9.595	
773.000	-2.104	
773.100	1.854	
773.200	1.005	
773.300	-15.810	
773.400	-1.893	
773.500	-6.782	
773.600	-0.147	
773.700	-7.606	
773.800	11.517	
773.900	4.118	
774.000	-11.618	
774.100	-8.652	
774.200	-8.014	
774.300	13.217	
774.400	3.853	
774.500	-3.841	
774.600	-6.818	
774.700	4.284	
774.800	-6.805	
774.900	-21.771	
775.000	19.443	
775.100	-0.609	
775.200	1.915	
775.300	-7.002	
775.400	1.090	
775.500	9.018	
775.600	-24.922	
775.700	0.464	
775.800	8.230	
775.900	5.722	
776.000	11.800	
776.100	-3.254	
776.200	-0.778	
776.300	-3.771	
776.400	-1.108	
776.500	-7.876	
776.600	3.097	
776.700	-6.081	
776.800	-1.116	
776.900	-0.687	
777.000	-0.725	
777.100	-10.994	
777.200	20.595	
777.300	5.713	
777.400	-19.399	
777.500	6.482	
777.600	0.944	
777.700	2.272	
777.800	-10.663	
777.900	0.302	
778.000	-4.268	
778.100	1.943	
778.200	-8.756	
778.300	6.182	
778.400	-4.315	
778.500	-3.656	
778.600	-13.874	
778.700	-1.288	
778.800	-7.523	
778.900	6.739	
779.000	-7.730	
779.100	-9.625	
779.200	18.001	
779.300	-0.605	
779.400	-7.561	
779.500	7.286	
779.600	6.478	
779.700	1.752	
779.800	-11.097	
779.900	4.223	
780.000	3.228	
780.100	-2.276	
780.200	-25.871	
780.300	7.842	
780.400	5.657	
780.500	-6.605	
780.600	-5.982	
780.700	1.927	
780.800	-3.022	
780.900	18.342	
781.000	4.547	
781.100	12.376	
781.200	8.965	
781.300	12.651	
781.400	19.286	
781.500	20.699	
781.600	15.398	
781.700	9.712	
781.800	11.615	
781.900	39.684	
782.000	6.023	
782.100	5.159	
782.200	30.939	
782.300	29.041	
782.400	26.068	
782.500	8.620	
782.600	9.534	
782.700	23.549	
782.800	8.267	
782.900	31.434	
783.000	30.454	
783.100	17.992	
783.200	19.088	
783.300	8.762	
783.400	36.890	
783.500	26.916	
783.600	12.307	
783.700	28.118	
783.800	20.816	
783.900	30.002	
784.000	30.033	
784.100	13.014	
784.200	27.360	
784.300	2.852	
784.400	42.038	
784.500	31.984	
784.600	46.411	
784.700	31.261	
784.800	35.256	
784.900	46.560	
785.000	25.654	
785.100	30.881	
785.200	12.348	
785.300	21.940	
785.400	37.147	
785.500	23.275	
785.600	24.060	
785.700	39.862	
785.800	45.420	
785.900	41.389	
786.000	4.330	
786.100	38.121	
786.200	43.215	
786.300	15.017	
786.400	26.134	
786.500	12.817	
786.600	35.096	
786.700	24.871	
786.800	25.614	
786.900	38.201	
787.000	29.912	
787.100	31.662	
787.200	21.342	
787.300	36.536	
787.400	30.902	
787.500	38.794	
787.600	20.850	
787.700	28.104	
787.800	43.596	
787.900	24.661	
788.000	29.582	
788.100	17.798	
788.200	17.510	
788.300	41.963	
788.400	41.187	
788.500	34.991	
788.600	24.509	
788.700	22.607	
788.800	16.507	
788.900	32.582	
789.000	27.382	
789.100	27.038	
789.200	10.527	
789.300	43.529	
789.400	30.300	
789.500	32.353	
789.600	43.677	
789.700	20.583	
789.800	25.270	
789.900	39.848	
790.000	25.234	
790.100	27.404	
790.200	23.343	
790.300	31.693	
790.400	23.439	
790.500	29.556	
790.600	47.210	
790.700	27.644	
790.800	17.413	
790.900	23.427	
791.000	4.843	
791.100	17.473	
791.200	23.181	
791.300	22.783	
791.400	33.441	
791.500	33.172	
791.600	10.827	
791.700	27.496	
791.800	23.215	
791.900	22.202	
792.000	36.609	
792.100	9.424	
792.200	6.992	
792.300	29.206	
792.400	27.832	
792.500	24.062	
792.600	37.755	
792.700	12.348	
792.800	23.715	
792.900	24.316	
793.000	26.525	
793.100	29.545	
793.200	13.008	
793.300	24.601	
793.400	27.485	
793.500	31.534	
793.600	16.870	
793.700	22.728	
793.800	30.871	
793.900	29.716	
794.000	25.436	
794.100	31.463	
794.200	17.035	
794.300	22.227	
794.400	38.536	
794.500	40.769	
794.600	29.562	
794.700	30.907	
794.800	28.008	
794.900	21.757	
795.000	25.699	
795.100	13.596	
795.200	14.242	
795.300	15.013	
795.400	27.705	
795.500	32.245	
795.600	29.476	
795.700	19.751	
795.800	19.632	
795.900	27.737	
796.000	15.645	
796.100	34.159	
796.200	24.464	
796.300	20.692	
796.400	32.175	
796.500	37.734	
796.600	-0.932	
796.700	19.192	
796.800	34.473	
796.900	13.123	
797.000	27.457	
797.100	20.759	
797.200	20.732	
797.300	35.607	
797.400	28.344	
797.500	6.215	
797.600	33.415	
797.700	28.775	
797.800	14.438	
797.900	8.743	
798.000	20.120	
798.100	23.511	
798.200	19.357	
798.300	23.900	
798.400	17.187	
798.500	30.569	
798.600	29.804	
798.700	-6.612	
798.800	38.945	
798.900	10.107	
799.000	34.669	
799.100	30.291	
799.200	24.185	
799.300	20.320	
799.400	48.998	
799.500	26.032	
799.600	26.102	
799.700	9.046	
799.800	35.388	
799.900	28.528	
800.000	13.424	
