time /s	I /nA	
0.100	62.047	
0.200	25.726	
0.300	21.620	
0.400	43.108	
0.500	28.534	
0.600	21.609	
0.700	37.282	
0.800	24.164	
0.900	27.889	
1.000	21.435	
1.100	38.999	
1.200	28.411	
1.300	35.147	
1.400	17.790	
1.500	27.123	
1.600	14.767	
1.700	19.511	
1.800	27.703	
1.900	19.682	
2.000	17.013	
2.100	25.096	
2.200	17.481	
2.300	20.243	
2.400	20.719	
2.500	23.009	
2.600	33.890	
2.700	20.459	
2.800	10.728	
2.900	34.535	
3.000	13.770	
3.100	28.966	
3.200	25.810	
3.300	23.674	
3.400	24.495	
3.500	29.849	
3.600	29.469	
3.700	22.991	
3.800	33.593	
3.900	23.297	
4.000	12.261	
4.100	15.098	
4.200	27.558	
4.300	23.740	
4.400	37.376	
4.500	31.193	
4.600	25.686	
4.700	22.513	
4.800	31.286	
4.900	-1.939	
5.000	20.145	
5.100	9.945	
5.200	28.580	
5.300	27.297	
5.400	22.998	
5.500	6.280	
5.600	30.665	
5.700	22.106	
5.800	25.849	
5.900	20.597	
6.000	26.778	
6.100	10.050	
6.200	5.092	
6.300	24.400	
6.400	23.994	
6.500	29.512	
6.600	28.259	
6.700	15.657	
6.800	18.528	
6.900	10.230	
7.000	30.079	
7.100	24.269	
7.200	26.223	
7.300	33.833	
7.400	23.656	
7.500	21.673	
7.600	26.675	
7.700	33.271	
7.800	23.717	
7.900	9.765	
8.000	25.747	
8.100	20.561	
8.200	29.480	
8.300	23.774	
8.400	16.546	
8.500	32.131	
8.600	18.383	
8.700	17.444	
8.800	16.246	
8.900	34.753	
9.000	13.048	
9.100	16.644	
9.200	27.229	
9.300	23.722	
9.400	7.294	
9.500	23.952	
9.600	20.478	
9.700	23.084	
9.800	17.341	
9.900	21.262	
10.000	18.191	
10.100	22.673	
10.200	18.473	
10.300	12.284	
10.400	13.062	
10.500	20.631	
10.600	32.048	
10.700	26.348	
10.800	18.113	
10.900	11.441	
11.000	30.588	
11.100	23.714	
11.200	18.257	
11.300	8.086	
11.400	22.404	
11.500	22.088	
11.600	25.205	
11.700	0.712	
11.800	29.325	
11.900	10.325	
12.000	24.489	
12.100	24.343	
12.200	32.435	
12.300	6.095	
12.400	16.641	
12.500	31.943	
12.600	19.315	
12.700	25.674	
12.800	7.961	
12.900	21.553	
13.000	21.610	
13.100	30.251	
13.200	19.611	
13.300	27.602	
13.400	24.064	
13.500	11.447	
13.600	28.219	
13.700	8.260	
13.800	20.649	
13.900	17.365	
14.000	35.923	
14.100	22.222	
14.200	15.860	
14.300	35.419	
14.400	19.607	
14.500	15.475	
14.600	18.615	
14.700	-1.781	
14.800	37.069	
14.900	3.053	
15.000	24.502	
15.100	26.159	
15.200	11.996	
15.300	19.470	
15.400	20.350	
15.500	22.969	
15.600	16.894	
15.700	25.413	
15.800	3.909	
15.900	25.381	
16.000	18.401	
16.100	23.527	
16.200	7.219	
16.300	15.399	
16.400	14.832	
16.500	19.999	
16.600	31.364	
16.700	21.066	
16.800	14.709	
16.900	6.648	
17.000	29.251	
17.100	27.149	
17.200	27.395	
17.300	26.695	
17.400	19.203	
17.500	17.641	
17.600	19.875	
17.700	15.048	
17.800	25.404	
17.900	29.057	
18.000	10.926	
18.100	21.384	
18.200	20.541	
18.300	8.020	
18.400	22.090	
18.500	19.241	
18.600	27.929	
18.700	20.376	
18.800	20.145	
18.900	7.750	
19.000	24.816	
19.100	19.294	
19.200	28.514	
19.300	2.645	
19.400	12.003	
19.500	17.241	
19.600	19.574	
19.700	22.104	
19.800	33.567	
19.900	5.324	
20.000	18.308	
20.100	15.093	
20.200	24.684	
20.300	20.169	
20.400	16.162	
20.500	6.246	
20.600	5.006	
20.700	31.153	
20.800	2.256	
20.900	21.928	
21.000	23.506	
21.100	22.744	
21.200	10.107	
21.300	10.350	
21.400	11.786	
21.500	31.302	
21.600	20.117	
21.700	10.595	
21.800	23.726	
21.900	26.162	
22.000	23.265	
22.100	17.656	
22.200	13.744	
22.300	17.751	
22.400	15.774	
22.500	16.848	
22.600	23.792	
22.700	28.515	
22.800	15.795	
22.900	11.245	
23.000	14.089	
23.100	13.225	
23.200	17.738	
23.300	35.548	
23.400	3.814	
23.500	10.156	
23.600	21.654	
23.700	3.954	
23.800	17.266	
23.900	24.565	
24.000	31.867	
24.100	15.656	
24.200	8.733	
24.300	-5.981	
24.400	20.878	
24.500	24.738	
24.600	30.371	
24.700	6.604	
24.800	22.644	
24.900	22.790	
25.000	11.000	
25.100	25.832	
25.200	15.366	
25.300	22.964	
25.400	10.496	
25.500	22.762	
25.600	6.907	
25.700	3.494	
25.800	23.669	
25.900	14.417	
26.000	10.536	
26.100	1.424	
26.200	27.054	
26.300	14.525	
26.400	3.298	
26.500	16.493	
26.600	-0.701	
26.700	21.832	
26.800	-14.742	
26.900	31.573	
27.000	23.583	
27.100	17.798	
27.200	5.347	
27.300	23.790	
27.400	24.439	
27.500	0.988	
27.600	30.373	
27.700	27.546	
27.800	9.295	
27.900	6.466	
28.000	17.923	
28.100	13.378	
28.200	4.518	
28.300	36.286	
28.400	25.282	
28.500	-1.811	
28.600	14.594	
28.700	27.660	
28.800	22.886	
28.900	-0.703	
29.000	6.260	
29.100	25.973	
29.200	24.293	
29.300	14.075	
29.400	9.695	
29.500	13.319	
29.600	18.511	
29.700	3.825	
29.800	19.332	
29.900	10.188	
30.000	27.750	
30.100	12.090	
30.200	35.945	
30.300	22.948	
30.400	3.399	
30.500	22.646	
30.600	23.162	
30.700	30.908	
30.800	19.540	
30.900	14.552	
31.000	31.879	
31.100	15.602	
31.200	34.608	
31.300	19.749	
31.400	29.646	
31.500	14.859	
31.600	42.623	
31.700	36.324	
31.800	30.401	
31.900	34.523	
32.000	35.232	
32.100	28.104	
32.200	41.848	
32.300	30.845	
32.400	42.828	
32.500	29.529	
32.600	34.552	
32.700	30.038	
32.800	50.664	
32.900	44.922	
33.000	42.975	
33.100	40.803	
33.200	40.153	
33.300	48.205	
33.400	42.431	
33.500	32.786	
33.600	33.566	
33.700	55.997	
33.800	34.251	
33.900	38.753	
34.000	45.536	
34.100	42.123	
34.200	46.400	
34.300	30.852	
34.400	46.460	
34.500	33.259	
34.600	34.998	
34.700	39.028	
34.800	43.634	
34.900	38.109	
35.000	48.251	
35.100	28.920	
35.200	58.872	
35.300	39.744	
35.400	34.062	
35.500	50.100	
35.600	63.263	
35.700	43.432	
35.800	63.535	
35.900	36.958	
36.000	45.231	
36.100	40.172	
36.200	45.890	
36.300	55.444	
36.400	47.536	
36.500	56.917	
36.600	47.464	
36.700	60.935	
36.800	44.295	
36.900	39.930	
37.000	43.792	
37.100	50.803	
37.200	36.729	
37.300	25.209	
37.400	34.218	
37.500	42.224	
37.600	40.339	
37.700	47.104	
37.800	34.111	
37.900	50.200	
38.000	49.026	
38.100	48.420	
38.200	40.765	
38.300	31.106	
38.400	23.310	
38.500	30.069	
38.600	40.768	
38.700	40.322	
38.800	44.078	
38.900	45.198	
39.000	48.083	
39.100	35.304	
39.200	37.634	
39.300	36.315	
39.400	26.360	
39.500	43.395	
39.600	46.480	
39.700	31.324	
39.800	62.291	
39.900	30.694	
40.000	33.245	
40.100	34.889	
40.200	44.444	
40.300	43.265	
40.400	21.595	
40.500	40.800	
40.600	33.729	
40.700	38.491	
40.800	40.019	
40.900	25.178	
41.000	55.094	
41.100	21.480	
41.200	32.197	
41.300	55.318	
41.400	21.890	
41.500	38.249	
41.600	48.233	
41.700	49.742	
41.800	30.331	
41.900	25.861	
42.000	35.913	
42.100	32.642	
42.200	43.097	
42.300	43.349	
42.400	24.810	
42.500	31.090	
42.600	35.285	
42.700	32.543	
42.800	23.115	
42.900	29.898	
43.000	29.796	
43.100	48.298	
43.200	42.590	
43.300	38.661	
43.400	39.979	
43.500	27.336	
43.600	35.627	
43.700	34.803	
43.800	40.831	
43.900	34.226	
44.000	35.637	
44.100	30.416	
44.200	38.409	
44.300	31.248	
44.400	31.053	
44.500	34.815	
44.600	19.020	
44.700	30.892	
44.800	40.546	
44.900	28.913	
45.000	26.123	
45.100	36.596	
45.200	42.830	
45.300	46.541	
45.400	39.122	
45.500	36.789	
45.600	29.705	
45.700	23.650	
45.800	28.131	
45.900	24.406	
46.000	27.791	
46.100	40.660	
46.200	24.995	
46.300	39.016	
46.400	47.161	
46.500	23.722	
46.600	34.052	
46.700	35.925	
46.800	22.967	
46.900	32.917	
47.000	17.671	
47.100	42.946	
47.200	32.242	
47.300	21.897	
47.400	43.693	
47.500	18.066	
47.600	36.462	
47.700	23.352	
47.800	29.212	
47.900	28.767	
48.000	36.897	
48.100	15.641	
48.200	41.516	
48.300	31.243	
48.400	31.104	
48.500	21.818	
48.600	38.511	
48.700	23.350	
48.800	23.920	
48.900	27.674	
49.000	22.580	
49.100	43.829	
49.200	28.359	
49.300	50.932	
49.400	27.794	
49.500	18.001	
49.600	12.974	
49.700	30.203	
49.800	44.317	
49.900	19.745	
50.000	31.654	
50.100	27.452	
50.200	26.352	
50.300	15.716	
50.400	22.050	
50.500	19.268	
50.600	21.721	
50.700	29.166	
50.800	36.652	
50.900	45.502	
51.000	10.085	
51.100	16.070	
51.200	52.649	
51.300	19.615	
51.400	29.305	
51.500	21.700	
51.600	45.908	
51.700	24.577	
51.800	1.319	
51.900	26.952	
52.000	20.652	
52.100	17.371	
52.200	20.158	
52.300	31.555	
52.400	23.641	
52.500	23.028	
52.600	26.895	
52.700	22.663	
52.800	22.174	
52.900	18.988	
53.000	8.523	
53.100	42.227	
53.200	23.296	
53.300	25.710	
53.400	7.270	
53.500	21.797	
53.600	14.438	
53.700	23.309	
53.800	29.869	
53.900	28.402	
54.000	24.838	
54.100	21.352	
54.200	15.352	
54.300	25.253	
54.400	15.299	
54.500	19.422	
54.600	30.393	
54.700	21.620	
54.800	18.754	
54.900	20.826	
55.000	18.187	
55.100	18.979	
55.200	38.880	
55.300	22.515	
55.400	20.748	
55.500	21.313	
55.600	11.758	
55.700	18.148	
55.800	32.969	
55.900	20.349	
56.000	23.760	
56.100	29.259	
56.200	9.977	
56.300	16.171	
56.400	25.159	
56.500	25.377	
56.600	25.454	
56.700	26.349	
56.800	11.669	
56.900	10.682	
57.000	31.325	
57.100	11.665	
57.200	27.487	
57.300	10.686	
57.400	12.066	
57.500	32.512	
57.600	35.431	
57.700	28.188	
57.800	16.848	
57.900	11.966	
58.000	25.266	
58.100	8.246	
58.200	43.580	
58.300	23.422	
58.400	11.762	
58.500	8.532	
58.600	27.172	
58.700	27.116	
58.800	14.710	
58.900	51.357	
59.000	23.080	
59.100	23.963	
59.200	12.015	
59.300	24.345	
59.400	24.313	
59.500	27.242	
59.600	23.743	
59.700	26.952	
59.800	28.392	
59.900	15.688	
60.000	21.448	
60.100	19.152	
60.200	21.113	
60.300	20.328	
60.400	18.622	
60.500	29.574	
60.600	18.718	
60.700	24.763	
60.800	23.574	
60.900	10.467	
61.000	10.408	
61.100	25.454	
61.200	33.495	
61.300	21.660	
61.400	33.468	
61.500	25.617	
61.600	13.352	
61.700	27.866	
61.800	25.487	
61.900	6.198	
62.000	31.228	
62.100	22.090	
62.200	30.956	
62.300	26.195	
62.400	16.974	
62.500	29.188	
62.600	11.939	
62.700	24.311	
62.800	25.014	
62.900	19.563	
63.000	16.712	
63.100	-16.002	
63.200	8.522	
63.300	16.270	
63.400	13.966	
63.500	34.999	
63.600	19.525	
63.700	33.462	
63.800	41.694	
63.900	23.621	
64.000	23.259	
64.100	33.706	
64.200	24.509	
64.300	0.353	
64.400	32.037	
64.500	28.885	
64.600	25.107	
64.700	-0.397	
64.800	32.189	
64.900	24.790	
65.000	17.084	
65.100	32.198	
65.200	26.628	
65.300	21.516	
65.400	14.968	
65.500	17.504	
65.600	21.778	
65.700	18.682	
65.800	28.114	
65.900	14.294	
66.000	14.209	
66.100	20.141	
66.200	24.390	
66.300	23.209	
66.400	22.699	
66.500	24.046	
66.600	15.651	
66.700	11.019	
66.800	17.671	
66.900	35.738	
67.000	37.862	
67.100	20.881	
67.200	11.554	
67.300	23.228	
67.400	18.906	
67.500	36.442	
67.600	13.497	
67.700	30.251	
67.800	8.266	
67.900	18.170	
68.000	16.414	
68.100	30.327	
68.200	14.458	
68.300	10.772	
68.400	-1.368	
68.500	7.209	
68.600	22.347	
68.700	41.123	
68.800	7.288	
68.900	42.062	
69.000	6.345	
69.100	26.394	
69.200	19.959	
69.300	37.133	
69.400	10.769	
69.500	3.996	
69.600	17.161	
69.700	30.040	
69.800	19.293	
69.900	18.143	
70.000	13.738	
70.100	20.406	
70.200	7.372	
70.300	23.563	
70.400	11.526	
70.500	13.906	
70.600	34.385	
70.700	30.511	
70.800	16.512	
70.900	36.089	
71.000	9.006	
71.100	5.736	
71.200	32.302	
71.300	20.417	
71.400	46.856	
71.500	7.847	
71.600	5.840	
71.700	22.405	
71.800	32.763	
71.900	28.786	
72.000	15.886	
72.100	26.368	
72.200	19.961	
72.300	25.502	
72.400	11.110	
72.500	38.392	
72.600	28.262	
72.700	23.603	
72.800	32.063	
72.900	4.593	
73.000	15.941	
73.100	38.013	
73.200	22.997	
73.300	1.224	
73.400	36.520	
73.500	24.382	
73.600	9.837	
73.700	20.822	
73.800	35.173	
73.900	22.590	
74.000	30.794	
74.100	15.448	
74.200	23.001	
74.300	18.523	
74.400	3.487	
74.500	37.750	
74.600	18.570	
74.700	6.280	
74.800	8.224	
74.900	16.504	
75.000	33.252	
75.100	30.341	
75.200	24.388	
75.300	15.993	
75.400	19.291	
75.500	12.842	
75.600	31.084	
75.700	26.753	
75.800	9.846	
75.900	18.374	
76.000	29.710	
76.100	30.446	
76.200	24.701	
76.300	27.254	
76.400	1.253	
76.500	5.433	
76.600	13.807	
76.700	36.990	
76.800	29.808	
76.900	23.852	
77.000	28.793	
77.100	18.707	
77.200	14.413	
77.300	36.435	
77.400	14.421	
77.500	10.994	
77.600	19.827	
77.700	20.370	
77.800	27.661	
77.900	14.147	
78.000	22.305	
78.100	34.324	
78.200	25.335	
78.300	20.346	
78.400	28.463	
78.500	27.635	
78.600	16.042	
78.700	19.144	
78.800	4.832	
78.900	27.417	
79.000	12.198	
79.100	23.939	
79.200	28.984	
79.300	27.794	
79.400	5.107	
79.500	39.244	
79.600	12.560	
79.700	21.503	
79.800	23.237	
79.900	25.757	
80.000	15.044	
80.100	14.703	
80.200	24.695	
80.300	20.058	
80.400	14.547	
80.500	14.642	
80.600	35.016	
80.700	24.136	
80.800	20.716	
80.900	30.150	
81.000	12.902	
81.100	27.189	
81.200	31.115	
81.300	18.881	
81.400	23.739	
81.500	14.965	
81.600	30.878	
81.700	25.553	
81.800	20.872	
81.900	17.595	
82.000	23.740	
82.100	30.585	
82.200	24.101	
82.300	10.360	
82.400	37.393	
82.500	16.102	
82.600	35.774	
82.700	15.404	
82.800	25.635	
82.900	17.870	
83.000	14.951	
83.100	22.313	
83.200	34.557	
83.300	30.689	
83.400	26.907	
83.500	14.070	
83.600	26.023	
83.700	7.578	
83.800	37.415	
83.900	-4.259	
84.000	7.987	
84.100	18.460	
84.200	24.045	
84.300	18.093	
84.400	6.407	
84.500	34.884	
84.600	14.544	
84.700	29.371	
84.800	18.355	
84.900	23.552	
85.000	16.827	
85.100	20.324	
85.200	21.056	
85.300	21.742	
85.400	20.503	
85.500	24.124	
85.600	41.518	
85.700	13.188	
85.800	35.195	
85.900	37.930	
86.000	17.830	
86.100	19.941	
86.200	26.322	
86.300	29.546	
86.400	24.892	
86.500	14.104	
86.600	7.597	
86.700	8.845	
86.800	22.477	
86.900	17.735	
87.000	16.770	
87.100	23.542	
87.200	32.014	
87.300	20.604	
87.400	21.383	
87.500	26.151	
87.600	-9.432	
87.700	30.955	
87.800	14.877	
87.900	6.795	
88.000	19.972	
88.100	17.877	
88.200	25.047	
88.300	19.903	
88.400	20.329	
88.500	9.657	
88.600	23.545	
88.700	22.895	
88.800	31.111	
88.900	23.815	
89.000	22.439	
89.100	11.938	
89.200	12.238	
89.300	9.564	
89.400	37.144	
89.500	34.623	
89.600	9.408	
89.700	23.556	
89.800	21.335	
89.900	32.865	
90.000	27.182	
90.100	23.733	
90.200	29.468	
90.300	6.789	
90.400	14.621	
90.500	23.223	
90.600	12.522	
90.700	29.245	
90.800	21.082	
90.900	32.322	
91.000	-2.072	
91.100	17.505	
91.200	26.327	
91.300	3.220	
91.400	27.764	
91.500	4.425	
91.600	-4.670	
91.700	12.815	
91.800	6.975	
91.900	15.737	
92.000	28.317	
92.100	11.401	
92.200	17.471	
92.300	13.039	
92.400	5.731	
92.500	8.863	
92.600	28.586	
92.700	20.414	
92.800	1.696	
92.900	14.330	
93.000	13.783	
93.100	-1.216	
93.200	-2.709	
93.300	10.900	
93.400	12.088	
93.500	8.332	
93.600	4.727	
93.700	10.734	
93.800	19.174	
93.900	13.450	
94.000	2.882	
94.100	12.702	
94.200	-9.142	
94.300	3.945	
94.400	-1.531	
94.500	5.468	
94.600	-3.940	
94.700	-3.384	
94.800	4.711	
94.900	-15.669	
95.000	27.824	
95.100	12.359	
95.200	11.405	
95.300	-2.787	
95.400	5.508	
95.500	14.032	
95.600	-3.381	
95.700	4.015	
95.800	5.639	
95.900	-0.571	
96.000	-7.087	
96.100	4.707	
96.200	10.307	
96.300	-11.023	
96.400	-11.297	
96.500	-21.402	
96.600	2.213	
96.700	4.063	
96.800	-7.007	
96.900	-17.520	
97.000	-7.104	
97.100	-8.770	
97.200	-11.297	
97.300	-10.860	
97.400	-2.099	
97.500	-15.216	
97.600	-1.243	
97.700	-8.175	
97.800	-7.674	
97.900	-22.719	
98.000	-2.365	
98.100	-3.144	
98.200	0.742	
98.300	-12.596	
98.400	-8.211	
98.500	-6.063	
98.600	-15.322	
98.700	-11.400	
98.800	-16.290	
98.900	-26.371	
99.000	-5.135	
99.100	-1.153	
99.200	5.949	
99.300	-18.160	
99.400	-10.010	
99.500	9.113	
99.600	-18.078	
99.700	-16.857	
99.800	-0.758	
99.900	-2.618	
100.000	4.948	
100.100	-14.165	
100.200	-6.850	
100.300	-5.467	
100.400	-20.049	
100.500	1.396	
100.600	2.405	
100.700	-14.826	
100.800	-12.520	
100.900	-14.999	
101.000	-2.916	
101.100	-6.695	
101.200	-8.259	
101.300	-9.487	
101.400	9.165	
101.500	-20.187	
101.600	-1.723	
101.700	-11.448	
101.800	-26.686	
101.900	-13.447	
102.000	-22.952	
102.100	8.629	
102.200	-11.039	
102.300	-17.014	
102.400	-12.543	
102.500	12.796	
102.600	11.385	
102.700	4.724	
102.800	-16.055	
102.900	-10.261	
103.000	-17.745	
103.100	-9.400	
103.200	-0.788	
103.300	2.259	
103.400	-8.926	
103.500	-0.585	
103.600	-1.728	
103.700	-2.317	
103.800	-6.400	
103.900	-13.827	
104.000	-7.655	
104.100	-8.540	
104.200	-7.415	
104.300	-30.759	
104.400	13.434	
104.500	-2.642	
104.600	-1.502	
104.700	-13.105	
104.800	-7.235	
104.900	-6.933	
105.000	0.284	
105.100	-18.936	
105.200	0.910	
105.300	6.033	
105.400	-2.877	
105.500	1.151	
105.600	-1.491	
105.700	-7.876	
105.800	-12.522	
105.900	-14.300	
106.000	-8.985	
106.100	-15.379	
106.200	0.151	
106.300	6.598	
106.400	-2.022	
106.500	-8.165	
106.600	-6.357	
106.700	-2.872	
106.800	4.240	
106.900	-7.580	
107.000	5.678	
107.100	-8.580	
107.200	2.541	
107.300	9.065	
107.400	-2.498	
107.500	-7.054	
107.600	-2.873	
107.700	-5.407	
107.800	-1.086	
107.900	-4.588	
108.000	-10.303	
108.100	-13.358	
108.200	5.910	
108.300	17.726	
108.400	-17.786	
108.500	-8.820	
108.600	-1.768	
108.700	-9.182	
108.800	-0.849	
108.900	7.585	
109.000	0.185	
109.100	-10.561	
109.200	4.535	
109.300	-2.303	
109.400	-8.151	
109.500	-0.022	
109.600	-6.840	
109.700	-7.148	
109.800	2.989	
109.900	4.453	
110.000	9.814	
110.100	-15.358	
110.200	-11.817	
110.300	-0.198	
110.400	-4.005	
110.500	8.759	
110.600	-15.014	
110.700	-14.496	
110.800	-14.679	
110.900	10.261	
111.000	3.602	
111.100	-19.271	
111.200	-9.860	
111.300	-0.110	
111.400	-5.459	
111.500	-6.404	
111.600	12.881	
111.700	10.607	
111.800	3.611	
111.900	-5.294	
112.000	4.736	
112.100	-0.722	
112.200	-2.994	
112.300	6.226	
112.400	-0.889	
112.500	10.439	
112.600	-4.962	
112.700	0.768	
112.800	1.145	
112.900	-8.195	
113.000	3.542	
113.100	-1.658	
113.200	-3.974	
113.300	-4.572	
113.400	9.242	
113.500	6.598	
113.600	-16.913	
113.700	0.411	
113.800	4.558	
113.900	-8.662	
114.000	1.720	
114.100	8.615	
114.200	-9.667	
114.300	-6.370	
114.400	-14.371	
114.500	5.931	
114.600	-7.905	
114.700	-2.861	
114.800	8.559	
114.900	3.296	
115.000	-3.516	
115.100	3.192	
115.200	-2.601	
115.300	1.001	
115.400	-17.961	
115.500	8.958	
115.600	-4.509	
115.700	7.205	
115.800	2.886	
115.900	12.553	
116.000	-5.898	
116.100	-0.194	
116.200	-2.009	
116.300	11.367	
116.400	5.046	
116.500	-8.204	
116.600	-5.010	
116.700	-10.181	
116.800	-7.500	
116.900	5.641	
117.000	4.628	
117.100	3.612	
117.200	-0.125	
117.300	5.005	
117.400	-8.402	
117.500	0.273	
117.600	-19.665	
117.700	0.748	
117.800	-3.793	
117.900	-2.289	
118.000	-6.303	
118.100	9.562	
118.200	-3.988	
118.300	7.385	
118.400	7.345	
118.500	2.032	
118.600	-4.123	
118.700	7.719	
118.800	16.098	
118.900	2.341	
119.000	-4.937	
119.100	-23.985	
119.200	-9.474	
119.300	-10.309	
119.400	15.003	
119.500	19.811	
119.600	14.116	
119.700	0.515	
119.800	-9.062	
119.900	-13.200	
120.000	-7.600	
120.100	4.963	
120.200	-2.933	
120.300	3.767	
120.400	-2.254	
120.500	4.401	
120.600	3.716	
120.700	3.133	
120.800	13.174	
120.900	6.520	
121.000	10.579	
121.100	-10.836	
121.200	14.457	
121.300	-9.682	
121.400	2.997	
121.500	9.630	
121.600	-2.988	
121.700	4.371	
121.800	14.436	
121.900	2.753	
122.000	4.819	
122.100	-15.056	
122.200	-11.809	
122.300	11.314	
122.400	6.686	
122.500	-14.518	
122.600	-7.619	
122.700	3.810	
122.800	4.471	
122.900	-10.347	
123.000	14.093	
123.100	2.804	
123.200	-5.887	
123.300	6.856	
123.400	-7.019	
123.500	15.991	
123.600	-1.723	
123.700	-4.317	
123.800	-6.264	
123.900	2.303	
124.000	7.763	
124.100	1.523	
124.200	3.934	
124.300	12.819	
124.400	1.036	
124.500	22.563	
124.600	-6.676	
124.700	9.920	
124.800	-3.474	
124.900	9.090	
125.000	5.260	
125.100	-6.990	
125.200	-6.451	
125.300	6.040	
125.400	2.296	
125.500	9.869	
125.600	-9.508	
125.700	1.839	
125.800	7.197	
125.900	12.551	
126.000	-14.307	
126.100	-1.264	
126.200	0.210	
126.300	-3.561	
126.400	7.408	
126.500	0.185	
126.600	0.247	
126.700	-0.253	
126.800	-6.825	
126.900	3.676	
127.000	5.443	
127.100	-7.274	
127.200	15.940	
127.300	16.872	
127.400	-2.229	
127.500	-17.581	
127.600	-0.560	
127.700	-13.758	
127.800	-25.006	
127.900	13.691	
128.000	0.151	
128.100	0.461	
128.200	1.465	
128.300	4.960	
128.400	-1.874	
128.500	8.680	
128.600	4.026	
128.700	-3.222	
128.800	-0.428	
128.900	0.087	
129.000	9.830	
129.100	1.051	
129.200	-6.136	
129.300	7.943	
129.400	15.613	
129.500	-2.178	
129.600	3.345	
129.700	-1.735	
129.800	1.773	
129.900	3.866	
130.000	17.775	
130.100	4.169	
130.200	-1.440	
130.300	-13.779	
130.400	-1.796	
130.500	1.850	
130.600	2.448	
130.700	0.326	
130.800	3.404	
130.900	4.178	
131.000	7.649	
131.100	7.105	
131.200	5.903	
131.300	11.450	
131.400	-10.231	
131.500	11.309	
131.600	3.121	
131.700	1.215	
131.800	3.435	
131.900	-3.516	
132.000	-3.240	
132.100	7.949	
132.200	-6.122	
132.300	7.345	
132.400	0.111	
132.500	-4.188	
132.600	8.190	
132.700	13.508	
132.800	3.451	
132.900	21.582	
133.000	0.560	
133.100	1.790	
133.200	-6.460	
133.300	2.642	
133.400	-0.039	
133.500	16.450	
133.600	6.926	
133.700	-20.429	
133.800	-8.722	
133.900	-7.764	
134.000	-3.092	
134.100	11.999	
134.200	11.986	
134.300	8.827	
134.400	-11.297	
134.500	-1.750	
134.600	8.499	
134.700	8.908	
134.800	1.058	
134.900	5.797	
135.000	11.982	
135.100	7.821	
135.200	-12.088	
135.300	-5.420	
135.400	4.217	
135.500	-8.307	
135.600	-8.305	
135.700	8.823	
135.800	-2.740	
135.900	2.217	
136.000	3.646	
136.100	16.084	
136.200	11.721	
136.300	-11.019	
136.400	-5.181	
136.500	3.918	
136.600	10.381	
136.700	-0.116	
136.800	10.142	
136.900	-10.138	
137.000	5.097	
137.100	-7.066	
137.200	-1.718	
137.300	-4.283	
137.400	21.321	
137.500	3.203	
137.600	5.330	
137.700	10.728	
137.800	-6.467	
137.900	-1.312	
138.000	-12.758	
138.100	4.249	
138.200	-3.238	
138.300	-3.084	
138.400	14.132	
138.500	4.992	
138.600	-1.789	
138.700	-0.267	
138.800	-13.482	
138.900	23.055	
139.000	10.091	
139.100	14.293	
139.200	2.355	
139.300	-3.297	
139.400	-11.473	
139.500	0.387	
139.600	-1.561	
139.700	5.949	
139.800	6.341	
139.900	7.916	
140.000	-18.702	
140.100	-0.688	
140.200	5.939	
140.300	-0.550	
140.400	0.116	
140.500	10.929	
140.600	6.113	
140.700	0.711	
140.800	7.116	
140.900	3.115	
141.000	-3.194	
141.100	7.610	
141.200	1.884	
141.300	18.582	
141.400	-16.626	
141.500	18.304	
141.600	27.290	
141.700	2.643	
141.800	10.273	
141.900	-9.660	
142.000	-5.913	
142.100	24.887	
142.200	5.799	
142.300	-0.972	
142.400	10.339	
142.500	7.279	
142.600	14.049	
142.700	-1.467	
142.800	9.200	
142.900	3.096	
143.000	-12.423	
143.100	-0.105	
143.200	18.440	
143.300	-11.863	
143.400	-7.598	
143.500	-6.898	
143.600	11.616	
143.700	3.733	
143.800	-0.885	
143.900	11.749	
144.000	11.807	
144.100	4.761	
144.200	0.071	
144.300	-5.578	
144.400	5.805	
144.500	-2.004	
144.600	7.905	
144.700	12.162	
144.800	11.625	
144.900	-7.914	
145.000	7.660	
145.100	17.436	
145.200	4.055	
145.300	20.705	
145.400	7.580	
145.500	3.646	
145.600	-3.966	
145.700	1.096	
145.800	9.723	
145.900	17.461	
146.000	9.424	
146.100	-17.245	
146.200	4.085	
146.300	13.362	
146.400	16.224	
146.500	-7.627	
146.600	4.389	
146.700	10.706	
146.800	0.185	
146.900	-1.372	
147.000	-0.507	
147.100	24.582	
147.200	4.142	
147.300	17.376	
147.400	-2.629	
147.500	12.227	
147.600	-13.685	
147.700	10.678	
147.800	-0.462	
147.900	13.473	
148.000	14.139	
148.100	-1.832	
148.200	0.951	
148.300	-0.407	
148.400	7.962	
148.500	13.076	
148.600	0.200	
148.700	17.538	
148.800	1.105	
148.900	-2.022	
149.000	4.917	
149.100	9.404	
149.200	-3.256	
149.300	2.007	
149.400	10.179	
149.500	6.023	
149.600	2.616	
149.700	11.242	
149.800	6.064	
149.900	8.545	
150.000	9.739	
150.100	6.308	
150.200	-2.517	
150.300	21.534	
150.400	25.759	
150.500	1.717	
150.600	5.914	
150.700	6.268	
150.800	14.508	
150.900	15.123	
151.000	-13.799	
151.100	15.842	
151.200	16.788	
151.300	-3.010	
151.400	-3.045	
151.500	11.797	
151.600	4.440	
151.700	9.895	
151.800	8.181	
151.900	0.140	
152.000	-1.644	
152.100	4.983	
152.200	9.472	
152.300	3.961	
152.400	6.139	
152.500	1.844	
152.600	32.793	
152.700	-0.535	
152.800	3.298	
152.900	-11.436	
153.000	-5.350	
153.100	26.199	
153.200	8.152	
153.300	30.136	
153.400	13.610	
153.500	-1.516	
153.600	7.725	
153.700	-3.467	
153.800	1.646	
153.900	4.642	
154.000	-14.360	
154.100	6.285	
154.200	-1.653	
154.300	0.810	
154.400	28.249	
154.500	6.167	
154.600	-2.143	
154.700	2.397	
154.800	0.203	
154.900	1.828	
155.000	-13.468	
155.100	0.044	
155.200	19.102	
155.300	18.294	
155.400	12.146	
155.500	7.351	
155.600	7.333	
155.700	-8.161	
155.800	12.001	
155.900	-5.896	
156.000	2.122	
156.100	3.366	
156.200	9.095	
156.300	11.621	
156.400	5.994	
156.500	15.054	
156.600	7.461	
156.700	4.851	
156.800	-11.396	
156.900	26.708	
157.000	11.498	
157.100	-2.436	
157.200	-12.661	
157.300	6.522	
157.400	14.978	
157.500	4.005	
157.600	17.727	
157.700	4.573	
157.800	12.882	
157.900	-14.565	
158.000	20.773	
158.100	7.976	
158.200	9.208	
158.300	15.229	
158.400	20.246	
158.500	-22.105	
158.600	7.424	
158.700	1.795	
158.800	3.523	
158.900	11.282	
159.000	15.706	
159.100	15.095	
159.200	13.228	
159.300	0.521	
159.400	3.365	
159.500	26.324	
159.600	5.216	
159.700	9.209	
159.800	8.987	
159.900	-3.319	
160.000	-30.573	
160.100	15.518	
160.200	-7.195	
160.300	23.919	
160.400	7.264	
160.500	10.251	
160.600	12.443	
160.700	4.743	
160.800	18.406	
160.900	10.371	
161.000	5.242	
161.100	26.068	
161.200	3.838	
161.300	8.604	
161.400	19.089	
161.500	11.398	
161.600	5.360	
161.700	18.615	
161.800	10.241	
161.900	19.797	
162.000	4.243	
162.100	2.375	
162.200	23.293	
162.300	-1.362	
162.400	18.854	
162.500	9.001	
162.600	3.802	
162.700	3.793	
162.800	15.301	
162.900	-5.715	
163.000	10.526	
163.100	-2.661	
163.200	-1.754	
163.300	8.672	
163.400	-0.315	
163.500	28.139	
163.600	3.085	
163.700	15.657	
163.800	3.717	
163.900	13.810	
164.000	1.909	
164.100	-4.050	
164.200	18.608	
164.300	-2.755	
164.400	-8.572	
164.500	10.256	
164.600	14.017	
164.700	3.784	
164.800	4.961	
164.900	13.439	
165.000	12.742	
165.100	8.704	
165.200	-0.873	
165.300	-26.551	
165.400	-15.675	
165.500	9.637	
165.600	-0.842	
165.700	4.686	
165.800	20.403	
165.900	14.343	
166.000	1.175	
166.100	19.415	
166.200	0.964	
166.300	9.481	
166.400	28.812	
166.500	13.233	
166.600	1.723	
166.700	16.380	
166.800	32.570	
166.900	5.898	
167.000	6.380	
167.100	-2.119	
167.200	10.341	
167.300	11.188	
167.400	10.025	
167.500	2.418	
167.600	16.479	
167.700	17.974	
167.800	6.444	
167.900	-19.332	
168.000	7.009	
168.100	16.484	
168.200	9.312	
168.300	19.190	
168.400	-4.859	
168.500	-3.404	
168.600	7.495	
168.700	13.523	
168.800	13.275	
168.900	9.582	
169.000	-5.787	
169.100	-8.458	
169.200	8.832	
169.300	18.811	
169.400	-3.604	
169.500	9.843	
169.600	6.520	
169.700	19.064	
169.800	2.511	
169.900	13.684	
170.000	3.518	
170.100	0.273	
170.200	11.239	
170.300	3.961	
170.400	10.557	
170.500	8.959	
170.600	8.757	
170.700	9.791	
170.800	4.123	
170.900	5.251	
171.000	6.057	
171.100	9.500	
171.200	8.620	
171.300	10.375	
171.400	7.367	
171.500	-0.817	
171.600	-2.036	
171.700	18.664	
171.800	-5.712	
171.900	1.782	
172.000	21.990	
172.100	4.152	
172.200	10.676	
172.300	14.822	
172.400	14.137	
172.500	8.083	
172.600	7.828	
172.700	15.536	
172.800	-16.876	
172.900	-4.197	
173.000	-3.314	
173.100	7.284	
173.200	6.990	
173.300	12.259	
173.400	4.040	
173.500	7.919	
173.600	12.854	
173.700	11.405	
173.800	2.358	
173.900	9.645	
174.000	3.020	
174.100	7.731	
174.200	8.541	
174.300	15.518	
174.400	10.690	
174.500	15.460	
174.600	4.664	
174.700	11.487	
174.800	5.629	
174.900	-5.865	
175.000	0.387	
175.100	20.032	
175.200	4.835	
175.300	-15.527	
175.400	6.973	
175.500	10.463	
175.600	1.440	
175.700	10.406	
175.800	9.635	
175.900	0.489	
176.000	22.823	
176.100	17.881	
176.200	21.315	
176.300	19.687	
176.400	5.919	
176.500	3.794	
176.600	6.810	
176.700	16.087	
176.800	6.715	
176.900	11.170	
177.000	8.254	
177.100	5.211	
177.200	1.079	
177.300	11.710	
177.400	10.410	
177.500	8.996	
177.600	10.189	
177.700	12.197	
177.800	5.145	
177.900	7.244	
178.000	15.710	
178.100	5.239	
178.200	11.625	
178.300	16.878	
178.400	5.337	
178.500	-2.075	
178.600	17.139	
178.700	11.717	
178.800	15.032	
178.900	7.581	
179.000	5.019	
179.100	1.452	
179.200	-6.905	
179.300	17.129	
179.400	8.948	
179.500	-7.752	
179.600	14.437	
179.700	2.948	
179.800	8.791	
179.900	7.954	
180.000	3.852	
180.100	-7.719	
180.200	4.358	
180.300	13.540	
180.400	12.998	
180.500	-5.051	
180.600	8.969	
180.700	22.496	
180.800	17.725	
180.900	7.567	
181.000	18.334	
181.100	7.163	
181.200	25.640	
181.300	13.929	
181.400	19.949	
181.500	21.900	
181.600	17.536	
181.700	15.550	
181.800	21.884	
181.900	27.292	
182.000	14.453	
182.100	-3.383	
182.200	25.318	
182.300	23.268	
182.400	21.994	
182.500	22.218	
182.600	24.280	
182.700	20.896	
182.800	31.814	
182.900	21.987	
183.000	24.725	
183.100	22.522	
183.200	26.495	
183.300	22.748	
183.400	2.952	
183.500	19.663	
183.600	31.135	
183.700	19.517	
183.800	22.558	
183.900	10.874	
184.000	16.124	
184.100	35.266	
184.200	40.481	
184.300	38.324	
184.400	10.398	
184.500	22.558	
184.600	13.770	
184.700	17.472	
184.800	26.704	
184.900	35.621	
185.000	-21.296	
185.100	12.102	
185.200	35.886	
185.300	36.438	
185.400	12.697	
185.500	33.452	
185.600	19.045	
185.700	20.904	
185.800	29.381	
185.900	18.474	
186.000	30.379	
186.100	34.254	
186.200	30.775	
186.300	17.171	
186.400	25.765	
186.500	15.628	
186.600	21.869	
186.700	18.236	
186.800	41.265	
186.900	8.694	
187.000	27.312	
187.100	29.187	
187.200	33.426	
187.300	23.827	
187.400	34.072	
187.500	26.423	
187.600	22.226	
187.700	19.614	
187.800	9.745	
187.900	28.466	
188.000	30.958	
188.100	31.474	
188.200	15.192	
188.300	20.768	
188.400	16.918	
188.500	19.776	
188.600	34.707	
188.700	25.133	
188.800	33.460	
188.900	20.097	
189.000	26.840	
189.100	8.987	
189.200	25.820	
189.300	41.259	
189.400	39.068	
189.500	20.264	
189.600	13.297	
189.700	25.482	
189.800	37.166	
189.900	27.606	
190.000	23.051	
190.100	14.079	
190.200	19.775	
190.300	17.834	
190.400	19.376	
190.500	32.438	
190.600	20.145	
190.700	33.955	
190.800	35.279	
190.900	24.405	
191.000	20.117	
191.100	23.949	
191.200	31.784	
191.300	18.353	
191.400	15.364	
191.500	9.556	
191.600	18.899	
191.700	32.581	
191.800	23.540	
191.900	16.141	
192.000	20.928	
192.100	53.498	
192.200	21.608	
192.300	43.145	
192.400	20.843	
192.500	25.742	
192.600	27.606	
192.700	26.867	
192.800	11.183	
192.900	30.534	
193.000	17.766	
193.100	37.326	
193.200	16.026	
193.300	13.371	
193.400	22.607	
193.500	27.496	
193.600	41.638	
193.700	15.824	
193.800	19.434	
193.900	15.377	
194.000	26.555	
194.100	24.434	
194.200	13.552	
194.300	27.649	
194.400	23.678	
194.500	8.207	
194.600	35.593	
194.700	35.837	
194.800	29.366	
194.900	22.778	
195.000	16.071	
195.100	35.336	
195.200	27.448	
195.300	24.575	
195.400	4.739	
195.500	28.567	
195.600	15.985	
195.700	30.084	
195.800	16.917	
195.900	14.256	
196.000	36.281	
196.100	28.457	
196.200	10.350	
196.300	14.173	
196.400	19.371	
196.500	28.776	
196.600	29.974	
196.700	32.071	
196.800	28.427	
196.900	11.510	
197.000	27.380	
197.100	28.436	
197.200	38.058	
197.300	15.216	
197.400	27.353	
197.500	19.107	
197.600	13.115	
197.700	22.037	
197.800	13.553	
197.900	22.518	
198.000	29.330	
198.100	29.786	
198.200	25.486	
198.300	37.033	
198.400	32.124	
198.500	-0.158	
198.600	35.480	
198.700	40.684	
198.800	15.428	
198.900	18.311	
199.000	26.451	
199.100	3.237	
199.200	21.233	
199.300	33.917	
199.400	32.820	
199.500	20.234	
199.600	13.718	
199.700	18.648	
199.800	30.529	
199.900	30.524	
200.000	38.057	
200.100	45.587	
200.200	18.462	
200.300	22.427	
200.400	6.117	
200.500	26.886	
200.600	21.250	
200.700	20.295	
200.800	33.889	
200.900	-9.062	
201.000	28.763	
201.100	19.481	
201.200	15.507	
201.300	9.148	
201.400	38.750	
201.500	24.118	
201.600	13.617	
201.700	25.994	
201.800	18.392	
201.900	29.645	
202.000	11.851	
202.100	20.603	
202.200	14.808	
202.300	27.603	
202.400	10.490	
202.500	22.246	
202.600	25.025	
202.700	34.524	
202.800	25.471	
202.900	21.519	
203.000	20.850	
203.100	12.634	
203.200	21.434	
203.300	18.293	
203.400	18.868	
203.500	38.303	
203.600	0.788	
203.700	40.955	
203.800	12.336	
203.900	10.949	
204.000	23.733	
204.100	24.520	
204.200	32.186	
204.300	17.520	
204.400	24.033	
204.500	17.752	
204.600	11.939	
204.700	23.422	
204.800	11.329	
204.900	35.630	
205.000	20.143	
205.100	18.974	
205.200	15.974	
205.300	20.541	
205.400	7.061	
205.500	30.651	
205.600	22.509	
205.700	27.604	
205.800	2.180	
205.900	24.128	
206.000	23.813	
206.100	27.363	
206.200	22.446	
206.300	23.921	
206.400	9.469	
206.500	13.069	
206.600	26.630	
206.700	22.830	
206.800	19.138	
206.900	11.998	
207.000	30.080	
207.100	37.242	
207.200	15.844	
207.300	6.458	
207.400	20.831	
207.500	6.279	
207.600	23.868	
207.700	19.061	
207.800	9.823	
207.900	13.410	
208.000	17.913	
208.100	17.852	
208.200	3.745	
208.300	18.576	
208.400	7.651	
208.500	22.160	
208.600	21.519	
208.700	17.227	
208.800	9.097	
208.900	25.881	
209.000	20.554	
209.100	16.757	
209.200	5.192	
209.300	24.517	
209.400	16.276	
209.500	20.929	
209.600	20.075	
209.700	15.663	
209.800	23.543	
209.900	20.886	
210.000	24.126	
210.100	12.649	
210.200	13.346	
210.300	22.783	
210.400	37.140	
210.500	23.947	
210.600	-5.430	
210.700	29.153	
210.800	26.694	
210.900	18.581	
211.000	28.277	
211.100	38.532	
211.200	11.370	
211.300	18.771	
211.400	23.768	
211.500	23.931	
211.600	26.104	
211.700	11.634	
211.800	21.507	
211.900	30.245	
212.000	19.924	
212.100	-13.229	
212.200	28.962	
212.300	15.578	
212.400	32.865	
212.500	11.863	
212.600	21.047	
212.700	15.559	
212.800	17.984	
212.900	9.334	
213.000	39.864	
213.100	32.952	
213.200	18.489	
213.300	24.781	
213.400	21.159	
213.500	7.057	
213.600	9.966	
213.700	36.502	
213.800	12.761	
213.900	20.159	
214.000	35.125	
214.100	30.729	
214.200	21.789	
214.300	7.441	
214.400	26.309	
214.500	34.308	
214.600	24.854	
214.700	24.866	
214.800	-1.434	
214.900	6.822	
215.000	22.034	
215.100	14.932	
215.200	14.141	
215.300	22.359	
215.400	40.089	
215.500	19.403	
215.600	7.741	
215.700	30.688	
215.800	38.781	
215.900	23.218	
216.000	11.940	
216.100	21.520	
216.200	5.161	
216.300	13.501	
216.400	43.210	
216.500	29.081	
216.600	19.808	
216.700	30.679	
216.800	25.359	
216.900	29.612	
217.000	21.774	
217.100	14.068	
217.200	14.923	
217.300	4.163	
217.400	19.044	
217.500	18.229	
217.600	14.901	
217.700	8.766	
217.800	29.324	
217.900	16.023	
218.000	24.728	
218.100	35.742	
218.200	25.554	
218.300	15.089	
218.400	17.356	
218.500	18.510	
218.600	23.783	
218.700	14.666	
218.800	21.492	
218.900	8.394	
219.000	35.438	
219.100	31.805	
219.200	26.683	
219.300	20.501	
219.400	19.127	
219.500	24.899	
219.600	20.973	
219.700	17.606	
219.800	31.901	
219.900	9.927	
220.000	2.299	
220.100	29.044	
220.200	16.211	
220.300	21.295	
220.400	29.992	
220.500	27.951	
220.600	-0.249	
220.700	24.719	
220.800	21.324	
220.900	23.804	
221.000	14.275	
221.100	35.626	
221.200	17.949	
221.300	18.522	
221.400	12.467	
221.500	21.538	
221.600	30.634	
221.700	28.402	
221.800	-3.848	
221.900	16.792	
222.000	24.239	
222.100	14.960	
222.200	50.851	
222.300	26.696	
222.400	25.475	
222.500	2.551	
222.600	28.830	
222.700	6.867	
222.800	29.868	
222.900	20.359	
223.000	22.123	
223.100	28.403	
223.200	17.472	
223.300	0.720	
223.400	30.868	
223.500	28.328	
223.600	5.202	
223.700	24.182	
223.800	7.085	
223.900	39.402	
224.000	33.274	
224.100	22.338	
224.200	24.014	
224.300	28.309	
224.400	27.151	
224.500	28.070	
224.600	27.217	
224.700	36.793	
224.800	24.414	
224.900	8.829	
225.000	19.647	
225.100	18.655	
225.200	13.690	
225.300	30.141	
225.400	17.986	
225.500	20.186	
225.600	49.086	
225.700	8.903	
225.800	24.048	
225.900	11.455	
226.000	12.360	
226.100	42.189	
226.200	15.576	
226.300	18.897	
226.400	24.649	
226.500	33.592	
226.600	28.424	
226.700	23.963	
226.800	16.910	
226.900	19.825	
227.000	26.447	
227.100	25.174	
227.200	26.034	
227.300	20.494	
227.400	19.106	
227.500	30.073	
227.600	14.646	
227.700	16.833	
227.800	21.030	
227.900	2.957	
228.000	27.275	
228.100	11.745	
228.200	20.782	
228.300	28.840	
228.400	5.861	
228.500	22.397	
228.600	19.605	
228.700	20.851	
228.800	3.089	
228.900	18.214	
229.000	7.159	
229.100	11.995	
229.200	16.714	
229.300	32.301	
229.400	9.145	
229.500	19.973	
229.600	23.399	
229.700	6.650	
229.800	27.449	
229.900	17.119	
230.000	22.051	
230.100	5.357	
230.200	14.571	
230.300	6.700	
230.400	18.169	
230.500	12.168	
230.600	30.181	
230.700	10.305	
230.800	14.841	
230.900	14.782	
231.000	30.216	
231.100	30.836	
231.200	41.395	
231.300	22.164	
231.400	23.189	
231.500	7.056	
231.600	16.304	
231.700	17.314	
231.800	15.087	
231.900	24.569	
232.000	18.141	
232.100	19.804	
232.200	20.799	
232.300	13.973	
232.400	23.042	
232.500	25.817	
232.600	14.578	
232.700	19.825	
232.800	9.587	
232.900	10.798	
233.000	16.491	
233.100	12.532	
233.200	24.349	
233.300	17.363	
233.400	17.649	
233.500	23.818	
233.600	11.178	
233.700	11.228	
233.800	31.190	
233.900	19.848	
234.000	21.787	
234.100	29.906	
234.200	25.005	
234.300	24.153	
234.400	1.633	
234.500	15.908	
234.600	24.016	
234.700	17.834	
234.800	36.987	
234.900	6.009	
235.000	17.368	
235.100	39.637	
235.200	7.353	
235.300	28.438	
235.400	13.475	
235.500	6.325	
235.600	21.428	
235.700	32.758	
235.800	36.711	
235.900	15.193	
236.000	15.388	
236.100	25.202	
236.200	11.152	
236.300	25.307	
236.400	27.556	
236.500	28.474	
236.600	12.600	
236.700	10.366	
236.800	19.804	
236.900	13.192	
237.000	14.853	
237.100	31.258	
237.200	24.338	
237.300	26.000	
237.400	30.310	
237.500	26.737	
237.600	11.181	
237.700	11.610	
237.800	22.315	
237.900	-1.633	
238.000	28.981	
238.100	23.419	
238.200	23.221	
238.300	13.126	
238.400	21.156	
238.500	6.295	
238.600	18.242	
238.700	14.411	
238.800	23.336	
238.900	12.831	
239.000	17.926	
239.100	33.206	
239.200	22.917	
239.300	19.335	
239.400	17.640	
239.500	30.642	
239.600	6.946	
239.700	14.410	
239.800	-11.274	
239.900	19.632	
240.000	27.150	
240.100	0.697	
240.200	5.438	
240.300	22.466	
240.400	13.835	
240.500	24.283	
240.600	20.898	
240.700	28.140	
240.800	3.835	
240.900	13.906	
241.000	21.967	
241.100	32.434	
241.200	19.278	
241.300	-3.307	
241.400	9.035	
241.500	14.879	
241.600	11.295	
241.700	13.533	
241.800	7.859	
241.900	7.962	
242.000	-2.621	
242.100	29.362	
242.200	23.338	
242.300	25.029	
242.400	20.769	
242.500	-14.584	
242.600	-1.286	
242.700	13.386	
242.800	-3.519	
242.900	-0.892	
243.000	19.297	
243.100	25.989	
243.200	2.988	
243.300	19.573	
243.400	-3.470	
243.500	28.229	
243.600	-4.213	
243.700	-0.584	
243.800	0.436	
243.900	-3.913	
244.000	11.034	
244.100	-2.791	
244.200	-5.150	
244.300	7.507	
244.400	1.740	
244.500	-0.219	
244.600	-11.702	
244.700	0.921	
244.800	7.732	
244.900	-5.814	
245.000	-0.873	
245.100	3.442	
245.200	-11.511	
245.300	-13.547	
245.400	3.134	
245.500	3.066	
245.600	2.029	
245.700	4.740	
245.800	-4.050	
245.900	5.102	
246.000	8.180	
246.100	-15.267	
246.200	-9.849	
246.300	-5.943	
246.400	19.338	
246.500	0.676	
246.600	-20.439	
246.700	4.515	
246.800	13.625	
246.900	-1.618	
247.000	-1.004	
247.100	-1.454	
247.200	-14.250	
247.300	-3.765	
247.400	-9.772	
247.500	-3.793	
247.600	0.028	
247.700	-11.049	
247.800	-19.297	
247.900	-5.979	
248.000	1.755	
248.100	17.846	
248.200	0.663	
248.300	-0.696	
248.400	5.610	
248.500	-8.094	
248.600	0.192	
248.700	-7.961	
248.800	-11.517	
248.900	-4.507	
249.000	-8.621	
249.100	7.469	
249.200	-17.512	
249.300	-0.567	
249.400	5.302	
249.500	-17.403	
249.600	-12.769	
249.700	-0.314	
249.800	-14.452	
249.900	-7.720	
250.000	10.765	
250.100	4.072	
250.200	-17.738	
250.300	1.117	
250.400	-10.331	
250.500	-2.047	
250.600	1.049	
250.700	-8.466	
250.800	-4.292	
250.900	-1.265	
251.000	-4.329	
251.100	-6.771	
251.200	8.590	
251.300	-16.374	
251.400	-15.177	
251.500	11.571	
251.600	-7.340	
251.700	-10.270	
251.800	4.417	
251.900	-12.955	
252.000	-8.104	
252.100	-10.163	
252.200	-18.199	
252.300	4.272	
252.400	-7.085	
252.500	-3.797	
252.600	14.014	
252.700	-14.462	
252.800	-3.103	
252.900	-12.654	
253.000	-0.133	
253.100	-6.774	
253.200	-0.691	
253.300	-13.158	
253.400	4.833	
253.500	-8.457	
253.600	-22.331	
253.700	-7.459	
253.800	-33.248	
253.900	-5.918	
254.000	1.785	
254.100	-10.839	
254.200	-4.376	
254.300	-7.292	
254.400	18.349	
254.500	-0.745	
254.600	-6.885	
254.700	-7.000	
254.800	-6.592	
254.900	-24.408	
255.000	14.355	
255.100	-6.134	
255.200	1.266	
255.300	-16.161	
255.400	-8.444	
255.500	-7.321	
255.600	-1.049	
255.700	-0.784	
255.800	-3.889	
255.900	-1.793	
256.000	-13.356	
256.100	-11.950	
256.200	-4.100	
256.300	10.076	
256.400	-0.228	
256.500	-7.888	
256.600	-8.266	
256.700	-9.158	
256.800	-9.662	
256.900	2.957	
257.000	6.748	
257.100	-12.012	
257.200	-8.396	
257.300	2.373	
257.400	-3.995	
257.500	-7.622	
257.600	-7.891	
257.700	-10.095	
257.800	1.520	
257.900	-0.178	
258.000	-12.258	
258.100	-22.028	
258.200	-8.721	
258.300	7.377	
258.400	-8.572	
258.500	1.344	
258.600	3.793	
258.700	-27.459	
258.800	12.250	
258.900	10.846	
259.000	-3.495	
259.100	-13.833	
259.200	-5.035	
259.300	0.081	
259.400	-5.645	
259.500	-3.248	
259.600	5.909	
259.700	-18.986	
259.800	-3.277	
259.900	-10.692	
260.000	4.410	
260.100	-4.576	
260.200	1.390	
260.300	-26.840	
260.400	-0.399	
260.500	-5.200	
260.600	8.980	
260.700	2.367	
260.800	-12.246	
260.900	-11.663	
261.000	-4.455	
261.100	-4.698	
261.200	-7.420	
261.300	-1.866	
261.400	-0.759	
261.500	2.303	
261.600	-14.347	
261.700	-6.397	
261.800	-1.986	
261.900	-0.430	
262.000	3.049	
262.100	8.704	
262.200	-9.844	
262.300	-21.458	
262.400	8.542	
262.500	-8.240	
262.600	-13.415	
262.700	3.034	
262.800	-9.951	
262.900	-12.312	
263.000	-2.783	
263.100	-5.518	
263.200	2.400	
263.300	-1.685	
263.400	-11.306	
263.500	-8.730	
263.600	-14.735	
263.700	4.827	
263.800	6.957	
263.900	10.628	
264.000	-9.715	
264.100	-8.185	
264.200	-0.997	
264.300	-5.372	
264.400	-3.747	
264.500	1.456	
264.600	3.046	
264.700	-5.010	
264.800	-4.040	
264.900	16.407	
265.000	-4.735	
265.100	-1.636	
265.200	-2.664	
265.300	5.957	
265.400	-7.055	
265.500	12.449	
265.600	-6.502	
265.700	0.232	
265.800	12.442	
265.900	4.274	
266.000	-7.468	
266.100	3.662	
266.200	-10.712	
266.300	13.710	
266.400	6.340	
266.500	-9.383	
266.600	-9.837	
266.700	-34.849	
266.800	2.793	
266.900	-4.628	
267.000	5.388	
267.100	9.916	
267.200	5.266	
267.300	-10.932	
267.400	-15.544	
267.500	5.379	
267.600	-2.516	
267.700	-6.564	
267.800	-4.960	
267.900	9.350	
268.000	-3.142	
268.100	-5.484	
268.200	0.467	
268.300	-3.073	
268.400	-2.233	
268.500	-2.854	
268.600	-11.582	
268.700	-1.896	
268.800	3.664	
268.900	-21.840	
269.000	2.113	
269.100	-17.563	
269.200	1.603	
269.300	-0.527	
269.400	-1.839	
269.500	4.197	
269.600	-1.624	
269.700	10.632	
269.800	-14.102	
269.900	16.198	
270.000	-5.294	
270.100	-4.629	
270.200	8.368	
270.300	-11.116	
270.400	-1.321	
270.500	5.553	
270.600	2.744	
270.700	5.334	
270.800	13.806	
270.900	-20.258	
271.000	-17.829	
271.100	7.169	
271.200	-7.294	
271.300	4.102	
271.400	-13.079	
271.500	-4.410	
271.600	-13.054	
271.700	-4.517	
271.800	-9.253	
271.900	-7.951	
272.000	4.399	
272.100	-7.308	
272.200	-0.240	
272.300	-7.823	
272.400	-4.682	
272.500	1.735	
272.600	7.511	
272.700	-3.055	
272.800	6.822	
272.900	-8.834	
273.000	-7.396	
273.100	11.276	
273.200	-9.415	
273.300	8.653	
273.400	-20.937	
273.500	-17.340	
273.600	-22.172	
273.700	-3.656	
273.800	-1.211	
273.900	8.486	
274.000	-10.831	
274.100	-12.021	
274.200	4.445	
274.300	9.736	
274.400	-0.405	
274.500	-6.161	
274.600	-5.736	
274.700	-9.099	
274.800	6.130	
274.900	-1.003	
275.000	-0.669	
275.100	0.625	
275.200	-2.259	
275.300	-10.313	
275.400	7.689	
275.500	-0.304	
275.600	-8.293	
275.700	-1.935	
275.800	5.278	
275.900	-4.996	
276.000	1.343	
276.100	4.188	
276.200	-0.847	
276.300	-15.934	
276.400	-9.477	
276.500	-5.844	
276.600	7.693	
276.700	-0.917	
276.800	6.194	
276.900	5.756	
277.000	-13.146	
277.100	-17.508	
277.200	-6.875	
277.300	7.050	
277.400	-3.106	
277.500	10.527	
277.600	5.689	
277.700	2.745	
277.800	-1.495	
277.900	-5.730	
278.000	15.525	
278.100	4.248	
278.200	8.858	
278.300	-3.201	
278.400	-6.058	
278.500	-15.544	
278.600	-11.546	
278.700	14.171	
278.800	1.339	
278.900	-2.972	
279.000	-4.328	
279.100	-4.941	
279.200	-9.618	
279.300	3.643	
279.400	-0.822	
279.500	8.320	
279.600	-5.777	
279.700	-14.810	
279.800	8.087	
279.900	5.352	
280.000	-6.460	
280.100	-4.006	
280.200	7.279	
280.300	0.502	
280.400	9.664	
280.500	-1.576	
280.600	-21.582	
280.700	-3.284	
280.800	-4.051	
280.900	4.251	
281.000	-0.737	
281.100	3.310	
281.200	5.464	
281.300	-10.036	
281.400	16.509	
281.500	13.512	
281.600	-3.524	
281.700	-15.292	
281.800	10.903	
281.900	3.934	
282.000	-10.519	
282.100	-0.980	
282.200	3.701	
282.300	3.539	
282.400	-12.219	
282.500	8.470	
282.600	2.062	
282.700	-5.066	
282.800	-1.855	
282.900	-5.748	
283.000	13.859	
283.100	9.703	
283.200	-9.913	
283.300	16.318	
283.400	6.892	
283.500	8.974	
283.600	13.555	
283.700	-7.291	
283.800	-5.853	
283.900	6.029	
284.000	0.597	
284.100	-17.871	
284.200	-12.564	
284.300	7.404	
284.400	12.302	
284.500	13.929	
284.600	-6.862	
284.700	-3.105	
284.800	-11.846	
284.900	12.240	
285.000	-10.833	
285.100	-6.216	
285.200	-7.434	
285.300	3.390	
285.400	1.461	
285.500	0.733	
285.600	-19.819	
285.700	21.876	
285.800	4.059	
285.900	-14.658	
286.000	-1.306	
286.100	0.578	
286.200	-4.829	
286.300	-14.484	
286.400	8.042	
286.500	-5.667	
286.600	-6.094	
286.700	13.447	
286.800	-2.318	
286.900	7.272	
287.000	-1.885	
287.100	-0.468	
287.200	-3.990	
287.300	-4.958	
287.400	-12.666	
287.500	1.727	
287.600	23.069	
287.700	-4.051	
287.800	-1.091	
287.900	-5.438	
288.000	-2.549	
288.100	-6.127	
288.200	-6.256	
288.300	-10.468	
288.400	-10.576	
288.500	-7.780	
288.600	15.595	
288.700	6.335	
288.800	6.421	
288.900	12.482	
289.000	-6.107	
289.100	-2.021	
289.200	-12.026	
289.300	-0.283	
289.400	-18.340	
289.500	2.761	
289.600	4.179	
289.700	6.551	
289.800	8.067	
289.900	-7.901	
290.000	-9.939	
290.100	-8.198	
290.200	5.176	
290.300	5.752	
290.400	-6.388	
290.500	9.514	
290.600	5.496	
290.700	-1.374	
290.800	-22.627	
290.900	7.697	
291.000	-2.071	
291.100	4.926	
291.200	5.400	
291.300	1.569	
291.400	4.649	
291.500	10.995	
291.600	1.044	
291.700	0.024	
291.800	3.627	
291.900	-2.947	
292.000	10.509	
292.100	-3.657	
292.200	-0.337	
292.300	-6.099	
292.400	-1.518	
292.500	-12.155	
292.600	1.514	
292.700	7.057	
292.800	7.690	
292.900	-10.512	
293.000	5.068	
293.100	1.268	
293.200	1.373	
293.300	-11.074	
293.400	2.322	
293.500	2.041	
293.600	-3.274	
293.700	-1.844	
293.800	-0.101	
293.900	-3.281	
294.000	16.642	
294.100	3.937	
294.200	2.802	
294.300	5.723	
294.400	6.974	
294.500	0.273	
294.600	2.467	
294.700	4.509	
294.800	21.168	
294.900	5.128	
295.000	16.253	
295.100	-2.447	
295.200	6.639	
295.300	2.047	
295.400	-1.880	
295.500	-10.358	
295.600	2.144	
295.700	15.635	
295.800	5.255	
295.900	-12.483	
296.000	-4.427	
296.100	5.929	
296.200	12.215	
296.300	-10.841	
296.400	6.606	
296.500	21.178	
296.600	-5.319	
296.700	-13.289	
296.800	6.163	
296.900	11.516	
297.000	6.542	
297.100	-6.719	
297.200	10.618	
297.300	-3.680	
297.400	-18.019	
297.500	20.110	
297.600	3.335	
297.700	-10.373	
297.800	8.472	
297.900	-3.347	
298.000	-5.056	
298.100	22.826	
298.200	14.880	
298.300	-10.293	
298.400	7.539	
298.500	-7.431	
298.600	-10.131	
298.700	-5.567	
298.800	3.398	
298.900	7.395	
299.000	-10.290	
299.100	9.158	
299.200	-15.097	
299.300	-3.820	
299.400	1.008	
299.500	-0.991	
299.600	5.453	
299.700	3.590	
299.800	7.540	
299.900	-5.722	
300.000	-0.582	
300.100	3.434	
300.200	1.650	
300.300	-4.316	
300.400	10.157	
300.500	-2.581	
300.600	18.599	
300.700	0.796	
300.800	12.808	
300.900	4.766	
301.000	-2.817	
301.100	11.262	
301.200	-11.019	
301.300	-0.448	
301.400	5.365	
301.500	-3.886	
301.600	-8.057	
301.700	12.328	
301.800	-4.073	
301.900	4.342	
302.000	0.280	
302.100	9.659	
302.200	1.693	
302.300	0.549	
302.400	6.933	
302.500	-1.514	
302.600	0.474	
302.700	-19.710	
302.800	4.548	
302.900	14.302	
303.000	-7.907	
303.100	24.838	
303.200	-0.955	
303.300	2.182	
303.400	-8.232	
303.500	3.696	
303.600	-9.940	
303.700	16.137	
303.800	-10.869	
303.900	-6.110	
304.000	-8.005	
304.100	9.226	
304.200	16.399	
304.300	-12.895	
304.400	3.856	
304.500	5.904	
304.600	-8.682	
304.700	-0.522	
304.800	5.409	
304.900	17.940	
305.000	-4.226	
305.100	-3.675	
305.200	15.226	
305.300	12.021	
305.400	9.759	
305.500	2.712	
305.600	4.909	
305.700	-2.228	
305.800	10.366	
305.900	-5.025	
306.000	1.667	
306.100	18.168	
306.200	10.859	
306.300	9.036	
306.400	0.201	
306.500	-2.398	
306.600	6.619	
306.700	1.278	
306.800	30.335	
306.900	11.391	
307.000	-2.028	
307.100	0.039	
307.200	5.331	
307.300	2.636	
307.400	-2.278	
307.500	5.555	
307.600	0.609	
307.700	-8.400	
307.800	19.113	
307.900	5.538	
308.000	6.876	
308.100	3.700	
308.200	-3.437	
308.300	1.422	
308.400	6.928	
308.500	22.162	
308.600	6.669	
308.700	-2.238	
308.800	12.203	
308.900	13.157	
309.000	-8.718	
309.100	-5.948	
309.200	14.909	
309.300	8.701	
309.400	11.253	
309.500	0.066	
309.600	-1.160	
309.700	2.667	
309.800	-6.748	
309.900	8.028	
310.000	-2.018	
310.100	4.488	
310.200	-15.485	
310.300	14.280	
310.400	4.881	
310.500	-18.481	
310.600	9.449	
310.700	5.582	
310.800	12.584	
310.900	-6.553	
311.000	6.797	
311.100	3.566	
311.200	1.632	
311.300	26.216	
311.400	-8.273	
311.500	-10.548	
311.600	-3.751	
311.700	2.372	
311.800	-6.397	
311.900	15.898	
312.000	-8.437	
312.100	-7.547	
312.200	3.049	
312.300	-0.236	
312.400	4.894	
312.500	-16.328	
312.600	2.154	
312.700	4.092	
312.800	17.084	
312.900	20.890	
313.000	4.895	
313.100	8.888	
313.200	-8.485	
313.300	0.929	
313.400	6.652	
313.500	6.785	
313.600	-3.142	
313.700	7.370	
313.800	1.788	
313.900	3.744	
314.000	-13.155	
314.100	-4.277	
314.200	-0.935	
314.300	16.904	
314.400	6.221	
314.500	-10.263	
314.600	0.887	
314.700	13.859	
314.800	-2.353	
314.900	0.932	
315.000	8.521	
315.100	-12.162	
315.200	29.086	
315.300	0.135	
315.400	-15.752	
315.500	-7.705	
315.600	0.480	
315.700	7.344	
315.800	17.721	
315.900	-7.601	
316.000	7.625	
316.100	4.442	
316.200	3.435	
316.300	0.469	
316.400	13.484	
316.500	-3.459	
316.600	-17.107	
316.700	15.864	
316.800	13.065	
316.900	2.542	
317.000	-8.550	
317.100	4.515	
317.200	12.612	
317.300	-3.106	
317.400	21.682	
317.500	15.894	
317.600	3.318	
317.700	2.716	
317.800	-7.040	
317.900	8.511	
318.000	3.483	
318.100	6.554	
318.200	6.159	
318.300	1.106	
318.400	-4.581	
318.500	9.368	
318.600	10.861	
318.700	10.590	
318.800	0.717	
318.900	3.504	
319.000	1.826	
319.100	-11.666	
319.200	10.836	
319.300	1.639	
319.400	4.833	
319.500	-10.633	
319.600	-7.979	
319.700	8.582	
319.800	1.619	
319.900	0.938	
320.000	12.310	
320.100	4.869	
320.200	-11.955	
320.300	9.862	
320.400	2.031	
320.500	2.618	
320.600	-1.362	
320.700	-3.393	
320.800	-2.160	
320.900	4.084	
321.000	-5.217	
321.100	-6.040	
321.200	5.882	
321.300	11.776	
321.400	-14.437	
321.500	-7.026	
321.600	26.441	
321.700	-4.223	
321.800	-2.240	
321.900	-22.047	
322.000	0.654	
322.100	-2.022	
322.200	4.810	
322.300	0.171	
322.400	-5.494	
322.500	-14.526	
322.600	5.732	
322.700	-0.825	
322.800	-11.993	
322.900	8.328	
323.000	2.453	
323.100	1.410	
323.200	7.823	
323.300	5.674	
323.400	11.712	
323.500	-13.743	
323.600	18.143	
323.700	-11.896	
323.800	-2.600	
323.900	5.757	
324.000	1.661	
324.100	3.258	
324.200	-15.461	
324.300	-2.534	
324.400	9.368	
324.500	5.064	
324.600	-16.015	
324.700	-1.255	
324.800	13.387	
324.900	-1.701	
325.000	21.639	
325.100	3.901	
325.200	3.143	
325.300	-8.059	
325.400	7.551	
325.500	-4.153	
325.600	0.630	
325.700	-6.477	
325.800	-4.834	
325.900	10.815	
326.000	-7.713	
326.100	11.167	
326.200	14.906	
326.300	-4.394	
326.400	-6.734	
326.500	9.764	
326.600	4.061	
326.700	-1.533	
326.800	11.879	
326.900	-3.092	
327.000	0.104	
327.100	5.126	
327.200	7.321	
327.300	4.536	
327.400	-11.970	
327.500	-10.000	
327.600	-9.741	
327.700	-8.836	
327.800	4.430	
327.900	5.765	
328.000	4.816	
328.100	-9.677	
328.200	-6.656	
328.300	3.576	
328.400	5.763	
328.500	10.799	
328.600	16.050	
328.700	7.503	
328.800	0.620	
328.900	1.380	
329.000	4.367	
329.100	-2.300	
329.200	1.403	
329.300	-1.122	
329.400	-7.252	
329.500	-10.192	
329.600	-9.682	
329.700	5.954	
329.800	-15.532	
329.900	-8.882	
330.000	7.312	
330.100	14.975	
330.200	-3.576	
330.300	9.143	
330.400	10.539	
330.500	11.792	
330.600	-6.345	
330.700	7.742	
330.800	10.614	
330.900	-5.314	
331.000	11.257	
331.100	5.774	
331.200	4.652	
331.300	18.428	
331.400	11.269	
331.500	5.227	
331.600	9.779	
331.700	8.609	
331.800	14.672	
331.900	21.278	
332.000	11.654	
332.100	10.401	
332.200	17.466	
332.300	29.788	
332.400	4.735	
332.500	20.948	
332.600	18.750	
332.700	13.997	
332.800	1.795	
332.900	25.625	
333.000	21.423	
333.100	3.535	
333.200	21.661	
333.300	10.015	
333.400	11.349	
333.500	28.553	
333.600	22.493	
333.700	23.983	
333.800	3.017	
333.900	21.001	
334.000	19.060	
334.100	4.536	
334.200	37.030	
334.300	12.037	
334.400	16.728	
334.500	14.394	
334.600	26.336	
334.700	24.914	
334.800	13.949	
334.900	17.085	
335.000	18.762	
335.100	8.083	
335.200	25.827	
335.300	18.490	
335.400	35.278	
335.500	7.758	
335.600	30.486	
335.700	24.788	
335.800	13.901	
335.900	13.954	
336.000	39.907	
336.100	1.349	
336.200	19.342	
336.300	-4.128	
336.400	36.090	
336.500	21.941	
336.600	26.369	
336.700	22.533	
336.800	15.047	
336.900	15.073	
337.000	17.043	
337.100	9.294	
337.200	7.140	
337.300	3.494	
337.400	31.822	
337.500	12.520	
337.600	20.816	
337.700	19.170	
337.800	22.380	
337.900	16.994	
338.000	25.311	
338.100	32.685	
338.200	28.502	
338.300	20.218	
338.400	14.005	
338.500	24.892	
338.600	15.157	
338.700	21.686	
338.800	13.240	
338.900	24.186	
339.000	14.884	
339.100	21.598	
339.200	14.465	
339.300	26.274	
339.400	8.877	
339.500	28.092	
339.600	16.168	
339.700	19.959	
339.800	14.509	
339.900	20.195	
340.000	12.211	
340.100	8.583	
340.200	21.591	
340.300	14.902	
340.400	10.384	
340.500	15.332	
340.600	24.345	
340.700	10.833	
340.800	23.065	
340.900	25.066	
341.000	12.860	
341.100	19.632	
341.200	19.879	
341.300	22.719	
341.400	18.627	
341.500	19.163	
341.600	15.052	
341.700	3.648	
341.800	14.762	
341.900	16.641	
342.000	9.399	
342.100	22.266	
342.200	19.940	
342.300	24.427	
342.400	23.928	
342.500	11.421	
342.600	13.118	
342.700	16.084	
342.800	-4.303	
342.900	21.288	
343.000	27.752	
343.100	15.704	
343.200	25.681	
343.300	8.110	
343.400	19.953	
343.500	1.426	
343.600	37.885	
343.700	22.123	
343.800	11.525	
343.900	34.274	
344.000	18.880	
344.100	4.405	
344.200	11.666	
344.300	15.321	
344.400	20.290	
344.500	22.878	
344.600	28.663	
344.700	22.650	
344.800	8.778	
344.900	12.342	
345.000	27.982	
345.100	17.540	
345.200	34.569	
345.300	16.240	
345.400	16.233	
345.500	12.802	
345.600	23.931	
345.700	4.857	
345.800	13.087	
345.900	8.286	
346.000	13.683	
346.100	42.216	
346.200	26.570	
346.300	3.952	
346.400	15.065	
346.500	23.707	
346.600	10.591	
346.700	19.864	
346.800	7.042	
346.900	5.793	
347.000	27.325	
347.100	21.186	
347.200	29.236	
347.300	29.667	
347.400	31.760	
347.500	19.057	
347.600	9.243	
347.700	11.855	
347.800	10.895	
347.900	12.103	
348.000	19.983	
348.100	21.398	
348.200	2.070	
348.300	23.281	
348.400	15.322	
348.500	11.359	
348.600	15.611	
348.700	2.993	
348.800	16.807	
348.900	15.261	
349.000	41.402	
349.100	-2.064	
349.200	1.615	
349.300	31.736	
349.400	7.132	
349.500	0.709	
349.600	27.713	
349.700	24.770	
349.800	-3.761	
349.900	19.603	
350.000	15.543	
350.100	8.311	
350.200	31.742	
350.300	22.990	
350.400	23.453	
350.500	11.210	
350.600	21.207	
350.700	11.602	
350.800	17.639	
350.900	22.313	
351.000	14.487	
351.100	37.792	
351.200	8.084	
351.300	-1.207	
351.400	22.600	
351.500	13.335	
351.600	14.990	
351.700	19.895	
351.800	15.005	
351.900	3.789	
352.000	20.095	
352.100	4.677	
352.200	30.031	
352.300	11.762	
352.400	-3.270	
352.500	11.384	
352.600	12.013	
352.700	5.997	
352.800	17.839	
352.900	3.346	
353.000	19.198	
353.100	29.795	
353.200	26.520	
353.300	11.429	
353.400	1.505	
353.500	2.405	
353.600	27.666	
353.700	20.610	
353.800	34.070	
353.900	5.038	
354.000	30.040	
354.100	11.334	
354.200	18.604	
354.300	12.612	
354.400	18.678	
354.500	21.284	
354.600	6.466	
354.700	2.696	
354.800	24.218	
354.900	13.945	
355.000	20.364	
355.100	21.540	
355.200	17.474	
355.300	17.338	
355.400	21.857	
355.500	11.091	
355.600	23.106	
355.700	15.350	
355.800	6.272	
355.900	14.548	
356.000	18.094	
356.100	7.031	
356.200	26.513	
356.300	19.116	
356.400	14.124	
356.500	-0.028	
356.600	22.773	
356.700	6.882	
356.800	16.928	
356.900	5.881	
357.000	23.469	
357.100	18.005	
357.200	1.952	
357.300	21.332	
357.400	36.480	
357.500	13.313	
357.600	-0.628	
357.700	16.714	
357.800	5.182	
357.900	22.399	
358.000	22.221	
358.100	5.835	
358.200	24.960	
358.300	-3.077	
358.400	13.575	
358.500	11.222	
358.600	1.692	
358.700	21.218	
358.800	7.082	
358.900	21.628	
359.000	17.127	
359.100	16.113	
359.200	12.010	
359.300	29.343	
359.400	8.325	
359.500	14.970	
359.600	10.164	
359.700	23.188	
359.800	11.818	
359.900	13.921	
360.000	29.070	
360.100	8.629	
360.200	18.129	
360.300	26.550	
360.400	13.266	
360.500	20.361	
360.600	9.642	
360.700	18.025	
360.800	13.285	
360.900	18.399	
361.000	0.540	
361.100	21.827	
361.200	1.317	
361.300	24.322	
361.400	-1.426	
361.500	21.136	
361.600	9.501	
361.700	18.335	
361.800	13.718	
361.900	15.928	
362.000	9.140	
362.100	-1.183	
362.200	28.844	
362.300	10.265	
362.400	6.446	
362.500	28.727	
362.600	7.689	
362.700	21.616	
362.800	18.640	
362.900	18.128	
363.000	16.150	
363.100	13.434	
363.200	19.488	
363.300	13.976	
363.400	17.668	
363.500	14.429	
363.600	24.890	
363.700	-1.546	
363.800	16.109	
363.900	12.752	
364.000	9.760	
364.100	16.024	
364.200	-5.509	
364.300	13.341	
364.400	26.667	
364.500	16.397	
364.600	15.223	
364.700	6.540	
364.800	11.150	
364.900	23.401	
365.000	0.795	
365.100	13.640	
365.200	12.353	
365.300	21.100	
365.400	22.021	
365.500	13.387	
365.600	-0.392	
365.700	12.992	
365.800	32.957	
365.900	-5.974	
366.000	9.986	
366.100	20.210	
366.200	21.088	
366.300	17.475	
366.400	24.189	
366.500	14.879	
366.600	21.496	
366.700	30.211	
366.800	28.681	
366.900	10.034	
367.000	14.267	
367.100	18.310	
367.200	8.093	
367.300	11.982	
367.400	16.825	
367.500	15.250	
367.600	13.778	
367.700	20.336	
367.800	13.755	
367.900	6.109	
368.000	17.772	
368.100	13.080	
368.200	16.548	
368.300	16.864	
368.400	22.698	
368.500	-0.311	
368.600	6.838	
368.700	19.599	
368.800	9.047	
368.900	11.587	
369.000	16.384	
369.100	21.968	
369.200	22.042	
369.300	13.252	
369.400	15.154	
369.500	16.880	
369.600	10.981	
369.700	16.398	
369.800	-12.612	
369.900	16.083	
370.000	4.543	
370.100	26.604	
370.200	-10.964	
370.300	24.661	
370.400	35.278	
370.500	23.242	
370.600	12.859	
370.700	1.641	
370.800	3.525	
370.900	17.165	
371.000	23.385	
371.100	1.606	
371.200	11.532	
371.300	15.895	
371.400	28.839	
371.500	9.136	
371.600	4.788	
371.700	29.584	
371.800	8.314	
371.900	10.402	
372.000	17.670	
372.100	11.867	
372.200	2.509	
372.300	19.631	
372.400	2.141	
372.500	12.946	
372.600	14.721	
372.700	-4.500	
372.800	6.542	
372.900	9.878	
373.000	8.133	
373.100	27.282	
373.200	14.182	
373.300	19.616	
373.400	11.474	
373.500	29.036	
373.600	6.388	
373.700	5.954	
373.800	23.332	
373.900	19.514	
374.000	17.223	
374.100	14.646	
374.200	-0.547	
374.300	20.913	
374.400	10.835	
374.500	3.452	
374.600	10.208	
374.700	13.367	
374.800	21.920	
374.900	7.943	
375.000	9.485	
375.100	6.818	
375.200	18.467	
375.300	19.642	
375.400	20.960	
375.500	6.326	
375.600	15.858	
375.700	12.025	
375.800	29.326	
375.900	11.764	
376.000	2.321	
376.100	19.026	
376.200	13.603	
376.300	19.188	
376.400	22.026	
376.500	24.913	
376.600	24.964	
376.700	26.265	
376.800	37.941	
376.900	6.026	
377.000	10.036	
377.100	11.377	
377.200	0.935	
377.300	-5.652	
377.400	34.580	
377.500	-2.542	
377.600	13.021	
377.700	22.919	
377.800	19.216	
377.900	9.615	
378.000	14.302	
378.100	13.730	
378.200	2.571	
378.300	6.498	
378.400	29.644	
378.500	1.621	
378.600	30.109	
378.700	16.919	
378.800	-2.864	
378.900	17.184	
379.000	5.063	
379.100	14.436	
379.200	20.843	
379.300	25.074	
379.400	1.353	
379.500	16.618	
379.600	16.361	
379.700	19.138	
379.800	11.618	
379.900	5.235	
380.000	3.510	
380.100	30.097	
380.200	14.904	
380.300	18.803	
380.400	7.860	
380.500	6.327	
380.600	19.642	
380.700	19.079	
380.800	14.915	
380.900	-7.392	
381.000	22.751	
381.100	16.119	
381.200	10.867	
381.300	27.200	
381.400	14.547	
381.500	17.869	
381.600	12.314	
381.700	10.041	
381.800	9.629	
381.900	19.950	
382.000	15.396	
382.100	25.400	
382.200	33.704	
382.300	22.196	
382.400	11.237	
382.500	11.447	
382.600	18.452	
382.700	8.399	
382.800	27.441	
382.900	-0.974	
383.000	30.384	
383.100	18.141	
383.200	11.161	
383.300	16.257	
383.400	16.702	
383.500	22.176	
383.600	24.160	
383.700	-4.138	
383.800	28.162	
383.900	14.575	
384.000	9.788	
384.100	9.333	
384.200	9.937	
384.300	13.102	
384.400	15.938	
384.500	14.327	
384.600	19.223	
384.700	-5.054	
384.800	23.730	
384.900	13.667	
385.000	22.148	
385.100	10.150	
385.200	18.972	
385.300	22.476	
385.400	21.071	
385.500	-8.949	
385.600	1.403	
385.700	32.779	
385.800	6.079	
385.900	15.291	
386.000	13.532	
386.100	18.265	
386.200	15.705	
386.300	9.480	
386.400	21.359	
386.500	15.567	
386.600	15.860	
386.700	18.967	
386.800	10.290	
386.900	25.992	
387.000	19.383	
387.100	7.488	
387.200	29.671	
387.300	12.834	
387.400	11.592	
387.500	20.539	
387.600	26.320	
387.700	14.912	
387.800	10.888	
387.900	17.246	
388.000	13.248	
388.100	18.030	
388.200	10.874	
388.300	18.193	
388.400	2.647	
388.500	22.864	
388.600	15.460	
388.700	13.267	
388.800	4.548	
388.900	18.313	
389.000	6.852	
389.100	11.723	
389.200	12.594	
389.300	21.815	
389.400	20.833	
389.500	-11.531	
389.600	21.667	
389.700	11.845	
389.800	22.149	
389.900	39.055	
390.000	17.572	
390.100	4.500	
390.200	9.543	
390.300	10.975	
390.400	16.878	
390.500	12.940	
390.600	12.139	
390.700	27.022	
390.800	17.376	
390.900	-1.265	
391.000	13.176	
391.100	3.042	
391.200	7.247	
391.300	1.268	
391.400	30.775	
391.500	17.234	
391.600	21.426	
391.700	1.602	
391.800	9.763	
391.900	13.089	
392.000	-8.355	
392.100	5.854	
392.200	38.376	
392.300	6.702	
392.400	8.837	
392.500	9.136	
392.600	1.203	
392.700	3.530	
392.800	13.878	
392.900	25.968	
393.000	11.463	
393.100	11.199	
393.200	-6.709	
393.300	12.448	
393.400	-15.679	
393.500	19.533	
393.600	-3.436	
393.700	10.439	
393.800	-13.312	
393.900	21.385	
394.000	20.279	
394.100	0.593	
394.200	14.871	
394.300	-11.700	
394.400	-6.512	
394.500	12.303	
394.600	1.680	
394.700	4.206	
394.800	1.021	
394.900	4.030	
395.000	25.543	
395.100	1.918	
395.200	-26.230	
395.300	-3.888	
395.400	10.599	
395.500	5.714	
395.600	-3.198	
395.700	4.836	
395.800	3.892	
395.900	-5.847	
396.000	-9.300	
396.100	-8.167	
396.200	-11.664	
396.300	-1.319	
396.400	-15.162	
396.500	-13.161	
396.600	2.055	
396.700	-12.054	
396.800	10.966	
396.900	-8.526	
397.000	6.389	
397.100	-3.750	
397.200	2.172	
397.300	-5.843	
397.400	-19.812	
397.500	10.004	
397.600	-4.531	
397.700	-5.075	
397.800	-2.892	
397.900	-9.552	
398.000	25.939	
398.100	0.996	
398.200	-4.540	
398.300	-9.148	
398.400	15.896	
398.500	1.837	
398.600	-1.768	
398.700	-13.347	
398.800	-15.668	
398.900	0.913	
399.000	1.516	
399.100	-7.767	
399.200	-16.411	
399.300	-7.226	
399.400	-1.535	
399.500	-5.713	
399.600	-17.752	
399.700	-7.247	
399.800	8.884	
399.900	-6.859	
400.000	12.429	
400.100	2.925	
400.200	-4.306	
400.300	-2.613	
400.400	3.223	
400.500	-9.533	
400.600	-13.227	
400.700	1.859	
400.800	0.059	
400.900	-8.824	
401.000	-5.491	
401.100	-15.717	
401.200	2.131	
401.300	-7.115	
401.400	-1.484	
401.500	-9.136	
401.600	5.042	
401.700	-12.832	
401.800	-15.494	
401.900	-2.794	
402.000	-4.271	
402.100	-7.740	
402.200	-17.621	
402.300	-4.325	
402.400	-18.721	
402.500	1.039	
402.600	-17.888	
402.700	-1.242	
402.800	-19.844	
402.900	-22.102	
403.000	6.659	
403.100	0.811	
403.200	11.526	
403.300	-15.232	
403.400	-3.631	
403.500	-7.727	
403.600	-1.442	
403.700	-11.168	
403.800	-26.745	
403.900	-19.691	
404.000	2.829	
404.100	2.719	
404.200	-1.569	
404.300	0.507	
404.400	-9.757	
404.500	-13.027	
404.600	-1.635	
404.700	-10.256	
404.800	-19.682	
404.900	-7.870	
405.000	0.928	
405.100	5.376	
405.200	-6.242	
405.300	-13.891	
405.400	13.782	
405.500	-6.679	
405.600	-6.523	
405.700	-10.571	
405.800	-18.125	
405.900	6.259	
406.000	3.762	
406.100	-6.044	
406.200	-5.397	
406.300	-0.127	
406.400	6.380	
406.500	-11.855	
406.600	-1.416	
406.700	-20.611	
406.800	11.526	
406.900	15.010	
407.000	-7.871	
407.100	-3.993	
407.200	-0.118	
407.300	-1.898	
407.400	0.914	
407.500	-9.675	
407.600	-8.466	
407.700	-9.252	
407.800	-8.563	
407.900	5.579	
408.000	4.925	
408.100	-27.395	
408.200	6.447	
408.300	1.357	
408.400	-11.973	
408.500	4.002	
408.600	-0.933	
408.700	-17.598	
408.800	-7.025	
408.900	-9.484	
409.000	-9.244	
409.100	1.634	
409.200	-10.531	
409.300	1.036	
409.400	-6.594	
409.500	-11.975	
409.600	-6.844	
409.700	6.737	
409.800	-11.341	
409.900	-1.577	
410.000	-14.794	
410.100	-10.577	
410.200	8.911	
410.300	5.753	
410.400	-18.477	
410.500	2.749	
410.600	-4.651	
410.700	3.146	
410.800	-0.094	
410.900	-3.415	
411.000	4.797	
411.100	-1.216	
411.200	-5.881	
411.300	1.427	
411.400	-24.882	
411.500	-10.796	
411.600	3.873	
411.700	-3.063	
411.800	8.491	
411.900	-8.259	
412.000	-17.055	
412.100	-10.326	
412.200	-9.106	
412.300	-4.682	
412.400	-8.500	
412.500	-2.007	
412.600	-5.260	
412.700	-16.289	
412.800	-18.570	
412.900	-1.081	
413.000	-1.337	
413.100	3.078	
413.200	-6.774	
413.300	-4.501	
413.400	-19.884	
413.500	-10.722	
413.600	3.443	
413.700	-8.010	
413.800	6.917	
413.900	-15.628	
414.000	-16.792	
414.100	-9.255	
414.200	-8.440	
414.300	-12.218	
414.400	-4.809	
414.500	-10.400	
414.600	-3.494	
414.700	-4.830	
414.800	-2.586	
414.900	-2.689	
415.000	-10.365	
415.100	13.440	
415.200	3.312	
415.300	6.148	
415.400	-18.236	
415.500	0.726	
415.600	-14.915	
415.700	7.818	
415.800	13.383	
415.900	-4.105	
416.000	-5.065	
416.100	19.921	
416.200	-7.956	
416.300	-2.682	
416.400	3.026	
416.500	-7.087	
416.600	4.604	
416.700	-5.235	
416.800	1.288	
416.900	1.936	
417.000	-11.992	
417.100	-7.775	
417.200	3.917	
417.300	12.134	
417.400	4.179	
417.500	0.439	
417.600	-0.538	
417.700	-8.264	
417.800	4.740	
417.900	-3.307	
418.000	1.136	
418.100	14.817	
418.200	-5.138	
418.300	-7.883	
418.400	-3.641	
418.500	-17.662	
418.600	9.685	
418.700	5.967	
418.800	-1.821	
418.900	-17.560	
419.000	-2.284	
419.100	-14.550	
419.200	-7.238	
419.300	-11.174	
419.400	-13.262	
419.500	12.521	
419.600	-1.442	
419.700	-26.964	
419.800	3.335	
419.900	-21.484	
420.000	-4.861	
420.100	6.900	
420.200	-21.487	
420.300	12.965	
420.400	-17.101	
420.500	7.272	
420.600	17.890	
420.700	-5.228	
420.800	-17.255	
420.900	-1.095	
421.000	-7.984	
421.100	6.221	
421.200	-5.407	
421.300	1.671	
421.400	-7.361	
421.500	8.261	
421.600	-2.823	
421.700	-1.888	
421.800	6.246	
421.900	2.136	
422.000	-16.645	
422.100	-7.100	
422.200	-14.632	
422.300	5.676	
422.400	0.313	
422.500	-20.671	
422.600	4.150	
422.700	13.224	
422.800	-6.354	
422.900	1.784	
423.000	-6.249	
423.100	0.560	
423.200	10.886	
423.300	-7.256	
423.400	-4.734	
423.500	6.578	
423.600	8.325	
423.700	6.876	
423.800	-12.064	
423.900	4.599	
424.000	6.559	
424.100	7.684	
424.200	-3.518	
424.300	-11.462	
424.400	-5.751	
424.500	1.407	
424.600	-20.082	
424.700	1.203	
424.800	22.881	
424.900	-2.313	
425.000	5.115	
425.100	9.658	
425.200	-7.007	
425.300	-13.267	
425.400	-19.648	
425.500	-10.024	
425.600	2.354	
425.700	-0.694	
425.800	-5.288	
425.900	2.110	
426.000	3.455	
426.100	-20.238	
426.200	9.818	
426.300	16.837	
426.400	-9.389	
426.500	-7.155	
426.600	6.526	
426.700	-6.076	
426.800	-4.889	
426.900	12.234	
427.000	-1.259	
427.100	-8.533	
427.200	-9.930	
427.300	2.918	
427.400	-15.222	
427.500	-4.020	
427.600	-4.334	
427.700	7.522	
427.800	-6.843	
427.900	-4.196	
428.000	-7.746	
428.100	-0.788	
428.200	2.447	
428.300	-6.670	
428.400	2.277	
428.500	-6.511	
428.600	-2.388	
428.700	15.545	
428.800	-6.169	
428.900	-8.325	
429.000	-21.768	
429.100	-4.833	
429.200	4.478	
429.300	-6.559	
429.400	4.628	
429.500	-6.938	
429.600	-8.970	
429.700	-1.878	
429.800	-9.433	
429.900	-5.294	
430.000	14.421	
430.100	-12.578	
430.200	12.884	
430.300	-17.155	
430.400	-11.209	
430.500	-9.916	
430.600	1.278	
430.700	3.372	
430.800	-17.839	
430.900	-10.678	
431.000	-5.773	
431.100	11.106	
431.200	-0.261	
431.300	4.325	
431.400	-5.745	
431.500	-16.194	
431.600	-9.131	
431.700	3.095	
431.800	3.834	
431.900	-3.373	
432.000	4.964	
432.100	12.067	
432.200	-13.281	
432.300	-11.670	
432.400	5.601	
432.500	13.959	
432.600	1.929	
432.700	-7.931	
432.800	4.003	
432.900	-22.357	
433.000	-3.095	
433.100	8.421	
433.200	9.384	
433.300	-1.347	
433.400	3.240	
433.500	0.252	
433.600	-2.647	
433.700	-10.744	
433.800	0.616	
433.900	4.995	
434.000	2.223	
434.100	5.221	
434.200	2.401	
434.300	-3.127	
434.400	-17.818	
434.500	1.187	
434.600	-14.981	
434.700	-13.137	
434.800	11.380	
434.900	5.827	
435.000	2.936	
435.100	2.625	
435.200	-10.173	
435.300	0.910	
435.400	11.229	
435.500	4.451	
435.600	-3.992	
435.700	-6.630	
435.800	-4.431	
435.900	9.485	
436.000	-1.829	
436.100	-0.809	
436.200	-9.599	
436.300	4.816	
436.400	-3.910	
436.500	2.676	
436.600	-0.067	
436.700	4.133	
436.800	-13.592	
436.900	0.427	
437.000	-7.561	
437.100	-3.334	
437.200	9.802	
437.300	-5.797	
437.400	-3.516	
437.500	2.412	
437.600	-6.601	
437.700	-4.384	
437.800	4.659	
437.900	-20.406	
438.000	-4.665	
438.100	0.097	
438.200	5.806	
438.300	-4.530	
438.400	-2.840	
438.500	15.715	
438.600	-3.072	
438.700	3.270	
438.800	3.697	
438.900	14.560	
439.000	-7.671	
439.100	-2.493	
439.200	-3.595	
439.300	-0.250	
439.400	10.957	
439.500	-2.612	
439.600	11.098	
439.700	4.632	
439.800	-18.578	
439.900	-6.696	
440.000	16.176	
440.100	-0.526	
440.200	-6.687	
440.300	15.655	
440.400	3.620	
440.500	10.093	
440.600	-19.606	
440.700	-7.313	
440.800	-23.258	
440.900	5.023	
441.000	0.238	
441.100	-9.442	
441.200	-3.228	
441.300	3.439	
441.400	8.801	
441.500	-26.585	
441.600	3.874	
441.700	4.861	
441.800	2.958	
441.900	11.221	
442.000	1.985	
442.100	-6.119	
442.200	3.157	
442.300	-8.844	
442.400	-4.097	
442.500	8.159	
442.600	0.468	
442.700	-9.450	
442.800	11.260	
442.900	-5.952	
443.000	-0.752	
443.100	4.676	
443.200	-19.025	
443.300	7.573	
443.400	2.909	
443.500	2.097	
443.600	15.204	
443.700	-3.181	
443.800	2.845	
443.900	-0.705	
444.000	7.170	
444.100	3.938	
444.200	14.624	
444.300	11.085	
444.400	-9.736	
444.500	5.441	
444.600	2.545	
444.700	-0.649	
444.800	-15.179	
444.900	-10.437	
445.000	3.219	
445.100	8.014	
445.200	1.400	
445.300	9.585	
445.400	-14.778	
445.500	13.926	
445.600	20.196	
445.700	-29.128	
445.800	-15.201	
445.900	-5.607	
446.000	11.188	
446.100	2.265	
446.200	5.583	
446.300	-8.503	
446.400	9.147	
446.500	10.467	
446.600	-15.900	
446.700	-2.627	
446.800	4.010	
446.900	-2.976	
447.000	-3.776	
447.100	1.398	
447.200	-15.248	
447.300	8.248	
447.400	6.871	
447.500	26.551	
447.600	-14.092	
447.700	13.078	
447.800	10.105	
447.900	-8.217	
448.000	-15.381	
448.100	5.659	
448.200	-10.312	
448.300	-0.165	
448.400	-10.181	
448.500	4.662	
448.600	12.828	
448.700	-4.027	
448.800	8.548	
448.900	2.471	
449.000	4.651	
449.100	2.994	
449.200	-3.077	
449.300	10.472	
449.400	0.545	
449.500	5.068	
449.600	5.711	
449.700	-4.331	
449.800	7.543	
449.900	10.953	
450.000	-12.652	
450.100	-1.148	
450.200	9.389	
450.300	-5.032	
450.400	10.725	
450.500	7.267	
450.600	6.934	
450.700	-10.070	
450.800	-6.479	
450.900	-10.278	
451.000	11.990	
451.100	-3.472	
451.200	-4.879	
451.300	10.716	
451.400	4.984	
451.500	-16.827	
451.600	-10.683	
451.700	1.589	
451.800	19.929	
451.900	3.944	
452.000	-13.077	
452.100	14.653	
452.200	22.499	
452.300	-8.936	
452.400	11.186	
452.500	-3.859	
452.600	4.671	
452.700	6.937	
452.800	1.319	
452.900	3.474	
453.000	-0.497	
453.100	-17.575	
453.200	5.300	
453.300	-2.570	
453.400	2.521	
453.500	5.539	
453.600	-15.204	
453.700	5.490	
453.800	7.609	
453.900	-16.879	
454.000	3.214	
454.100	9.896	
454.200	-1.236	
454.300	9.754	
454.400	14.848	
454.500	-12.921	
454.600	5.547	
454.700	-3.174	
454.800	1.375	
454.900	-16.490	
455.000	14.621	
455.100	-2.493	
455.200	2.076	
455.300	2.594	
455.400	6.974	
455.500	-0.364	
455.600	-10.485	
455.700	1.063	
455.800	-0.489	
455.900	4.505	
456.000	-16.324	
456.100	-15.523	
456.200	5.034	
456.300	14.526	
456.400	-2.208	
456.500	6.413	
456.600	0.838	
456.700	7.926	
456.800	2.371	
456.900	-4.374	
457.000	-10.638	
457.100	-9.129	
457.200	11.426	
457.300	2.817	
457.400	-4.905	
457.500	4.107	
457.600	0.400	
457.700	3.662	
457.800	2.197	
457.900	-6.687	
458.000	6.765	
458.100	-1.729	
458.200	3.172	
458.300	10.818	
458.400	-0.578	
458.500	1.943	
458.600	-13.378	
458.700	1.746	
458.800	-7.639	
458.900	-20.626	
459.000	21.669	
459.100	10.472	
459.200	-6.639	
459.300	2.559	
459.400	1.380	
459.500	-0.720	
459.600	-5.736	
459.700	5.769	
459.800	6.996	
459.900	2.333	
460.000	-3.739	
460.100	29.818	
460.200	-2.830	
460.300	14.825	
460.400	4.621	
460.500	0.825	
460.600	-6.649	
460.700	-13.240	
460.800	25.554	
460.900	-11.732	
461.000	8.147	
461.100	1.283	
461.200	-0.437	
461.300	-20.726	
461.400	18.102	
461.500	-1.606	
461.600	11.531	
461.700	-21.184	
461.800	11.400	
461.900	-7.965	
462.000	15.274	
462.100	8.411	
462.200	7.084	
462.300	-18.411	
462.400	5.678	
462.500	6.755	
462.600	-6.200	
462.700	5.644	
462.800	11.683	
462.900	14.092	
463.000	5.611	
463.100	15.465	
463.200	1.105	
463.300	-0.663	
463.400	-8.188	
463.500	18.898	
463.600	6.829	
463.700	1.819	
463.800	-9.226	
463.900	6.472	
464.000	-4.611	
464.100	4.849	
464.200	-1.262	
464.300	3.412	
464.400	8.831	
464.500	-3.338	
464.600	-4.398	
464.700	12.644	
464.800	5.012	
464.900	10.050	
465.000	4.856	
465.100	-4.023	
465.200	8.893	
465.300	8.256	
465.400	5.413	
465.500	4.884	
465.600	-9.079	
465.700	-8.970	
465.800	0.156	
465.900	-1.362	
466.000	4.758	
466.100	11.444	
466.200	3.719	
466.300	-15.615	
466.400	3.667	
466.500	-2.804	
466.600	12.103	
466.700	13.031	
466.800	16.009	
466.900	3.425	
467.000	-6.499	
467.100	1.066	
467.200	3.351	
467.300	-8.777	
467.400	-2.821	
467.500	5.328	
467.600	-7.701	
467.700	6.871	
467.800	-5.805	
467.900	-8.415	
468.000	7.624	
468.100	4.671	
468.200	-2.362	
468.300	-5.886	
468.400	7.023	
468.500	2.641	
468.600	-6.161	
468.700	3.884	
468.800	35.915	
468.900	-0.124	
469.000	4.014	
469.100	3.361	
469.200	-0.336	
469.300	-0.325	
469.400	3.289	
469.500	10.647	
469.600	-2.515	
469.700	-1.707	
469.800	-0.970	
469.900	-7.281	
470.000	-11.800	
470.100	-10.917	
470.200	7.539	
470.300	-5.497	
470.400	-7.995	
470.500	-10.735	
470.600	6.632	
470.700	5.264	
470.800	18.054	
470.900	-5.545	
471.000	16.083	
471.100	2.144	
471.200	-7.295	
471.300	-0.365	
471.400	-2.098	
471.500	-18.045	
471.600	-8.561	
471.700	13.963	
471.800	-2.833	
471.900	23.619	
472.000	2.501	
472.100	-1.700	
472.200	10.082	
472.300	-2.153	
472.400	-8.061	
472.500	-9.404	
472.600	18.210	
472.700	17.992	
472.800	1.501	
472.900	1.471	
473.000	-6.288	
473.100	-4.858	
473.200	10.411	
473.300	11.789	
473.400	-1.314	
473.500	-4.526	
473.600	12.480	
473.700	-13.288	
473.800	9.952	
473.900	13.347	
474.000	11.842	
474.100	13.404	
474.200	-12.427	
474.300	-26.139	
474.400	17.844	
474.500	13.820	
474.600	1.030	
474.700	-0.195	
474.800	3.872	
474.900	10.694	
475.000	-3.808	
475.100	5.907	
475.200	0.453	
475.300	-11.389	
475.400	14.511	
475.500	-5.106	
475.600	-1.161	
475.700	17.704	
475.800	5.790	
475.900	20.688	
476.000	3.739	
476.100	-5.924	
476.200	6.752	
476.300	-1.027	
476.400	19.546	
476.500	10.370	
476.600	4.518	
476.700	1.803	
476.800	6.275	
476.900	-15.665	
477.000	4.082	
477.100	-2.675	
477.200	0.242	
477.300	-10.033	
477.400	7.297	
477.500	10.534	
477.600	5.565	
477.700	-8.499	
477.800	23.863	
477.900	-6.213	
478.000	3.167	
478.100	-12.585	
478.200	20.150	
478.300	4.793	
478.400	1.573	
478.500	-2.120	
478.600	-22.136	
478.700	10.597	
478.800	10.661	
478.900	10.351	
479.000	-1.332	
479.100	-2.821	
479.200	7.432	
479.300	-5.415	
479.400	2.354	
479.500	6.622	
479.600	1.644	
479.700	-1.148	
479.800	16.461	
479.900	-10.793	
480.000	-12.354	
480.100	-0.372	
480.200	18.255	
480.300	3.999	
480.400	-7.152	
480.500	7.767	
480.600	-11.501	
480.700	-5.301	
480.800	22.103	
480.900	3.179	
481.000	9.786	
481.100	21.551	
481.200	5.904	
481.300	30.743	
481.400	4.594	
481.500	3.726	
481.600	26.934	
481.700	1.226	
481.800	7.186	
481.900	12.495	
482.000	3.061	
482.100	15.939	
482.200	12.082	
482.300	26.616	
482.400	9.940	
482.500	17.629	
482.600	-6.525	
482.700	12.905	
482.800	17.371	
482.900	28.036	
483.000	15.047	
483.100	26.187	
483.200	8.174	
483.300	14.094	
483.400	-6.849	
483.500	25.559	
483.600	33.944	
483.700	-8.532	
483.800	16.855	
483.900	22.998	
484.000	25.150	
484.100	15.205	
484.200	10.127	
484.300	19.349	
484.400	18.692	
484.500	14.279	
484.600	11.294	
484.700	13.747	
484.800	11.403	
484.900	10.347	
485.000	14.440	
485.100	24.313	
485.200	15.900	
485.300	-4.863	
485.400	21.368	
485.500	30.716	
485.600	5.281	
485.700	24.099	
485.800	19.303	
485.900	25.921	
486.000	21.715	
486.100	6.190	
486.200	18.065	
486.300	7.449	
486.400	17.764	
486.500	30.613	
486.600	22.521	
486.700	17.582	
486.800	16.441	
486.900	38.716	
487.000	20.731	
487.100	22.577	
487.200	26.457	
487.300	2.753	
487.400	27.533	
487.500	10.901	
487.600	10.532	
487.700	7.862	
487.800	48.969	
487.900	4.291	
488.000	22.838	
488.100	16.717	
488.200	15.743	
488.300	12.271	
488.400	25.608	
488.500	32.776	
488.600	28.471	
488.700	11.258	
488.800	26.152	
488.900	12.427	
489.000	30.026	
489.100	15.350	
489.200	31.697	
489.300	14.853	
489.400	9.398	
489.500	43.276	
489.600	15.480	
489.700	21.665	
489.800	21.050	
489.900	17.978	
490.000	15.515	
490.100	19.531	
490.200	6.262	
490.300	36.826	
490.400	9.494	
490.500	10.230	
490.600	6.480	
490.700	32.679	
490.800	23.311	
490.900	8.123	
491.000	5.875	
491.100	29.318	
491.200	27.616	
491.300	37.619	
491.400	3.790	
491.500	16.596	
491.600	14.171	
491.700	21.002	
491.800	2.278	
491.900	4.518	
492.000	31.013	
492.100	31.080	
492.200	24.544	
492.300	21.508	
492.400	4.958	
492.500	-9.214	
492.600	16.624	
492.700	27.997	
492.800	10.018	
492.900	21.635	
493.000	26.360	
493.100	16.412	
493.200	42.057	
493.300	21.808	
493.400	9.669	
493.500	3.718	
493.600	17.747	
493.700	14.407	
493.800	18.457	
493.900	12.187	
494.000	23.802	
494.100	33.010	
494.200	15.086	
494.300	6.734	
494.400	13.805	
494.500	14.341	
494.600	27.851	
494.700	21.751	
494.800	7.757	
494.900	24.664	
495.000	31.930	
495.100	10.609	
495.200	13.292	
495.300	16.578	
495.400	14.459	
495.500	27.973	
495.600	23.584	
495.700	10.840	
495.800	15.520	
495.900	13.308	
496.000	23.307	
496.100	11.794	
496.200	27.242	
496.300	29.121	
496.400	6.297	
496.500	-2.226	
496.600	13.870	
496.700	41.456	
496.800	32.356	
496.900	7.603	
497.000	35.544	
497.100	23.550	
497.200	9.674	
497.300	-4.719	
497.400	22.933	
497.500	34.203	
497.600	28.517	
497.700	19.501	
497.800	10.621	
497.900	7.896	
498.000	14.725	
498.100	10.320	
498.200	26.807	
498.300	23.222	
498.400	-4.743	
498.500	18.674	
498.600	9.261	
498.700	24.613	
498.800	5.591	
498.900	-1.093	
499.000	31.795	
499.100	14.503	
499.200	14.678	
499.300	-3.246	
499.400	21.422	
499.500	20.486	
499.600	0.401	
499.700	0.917	
499.800	25.058	
499.900	14.687	
500.000	19.283	
500.100	18.461	
500.200	19.461	
500.300	-2.429	
500.400	29.775	
500.500	17.314	
500.600	41.320	
500.700	8.423	
500.800	0.891	
500.900	-0.574	
501.000	14.241	
501.100	33.666	
501.200	25.949	
501.300	10.860	
501.400	11.862	
501.500	12.531	
501.600	13.906	
501.700	7.522	
501.800	16.710	
501.900	21.530	
502.000	2.939	
502.100	16.116	
502.200	15.444	
502.300	12.541	
502.400	17.073	
502.500	2.037	
502.600	30.973	
502.700	13.816	
502.800	-1.810	
502.900	16.808	
503.000	13.559	
503.100	24.143	
503.200	15.110	
503.300	13.257	
503.400	25.889	
503.500	9.241	
503.600	26.195	
503.700	-1.046	
503.800	24.990	
503.900	17.065	
504.000	17.495	
504.100	5.179	
504.200	11.564	
504.300	17.944	
504.400	15.986	
504.500	12.889	
504.600	-2.362	
504.700	11.407	
504.800	3.331	
504.900	8.380	
505.000	3.376	
505.100	23.153	
505.200	14.981	
505.300	7.167	
505.400	30.661	
505.500	16.393	
505.600	9.005	
505.700	21.000	
505.800	8.044	
505.900	-3.243	
506.000	28.205	
506.100	6.933	
506.200	19.376	
506.300	-11.926	
506.400	16.234	
506.500	-0.612	
506.600	16.787	
506.700	21.813	
506.800	17.223	
506.900	15.555	
507.000	13.809	
507.100	1.934	
507.200	1.936	
507.300	18.231	
507.400	8.713	
507.500	7.033	
507.600	9.141	
507.700	24.283	
507.800	2.422	
507.900	19.417	
508.000	28.975	
508.100	16.695	
508.200	-1.872	
508.300	16.067	
508.400	7.140	
508.500	11.271	
508.600	16.935	
508.700	24.237	
508.800	13.994	
508.900	18.064	
509.000	16.830	
509.100	-1.940	
509.200	9.638	
509.300	21.279	
509.400	14.985	
509.500	26.416	
509.600	-11.590	
509.700	29.511	
509.800	13.903	
509.900	4.494	
510.000	22.462	
510.100	23.844	
510.200	10.471	
510.300	30.938	
510.400	15.075	
510.500	9.813	
510.600	9.608	
510.700	19.349	
510.800	30.708	
510.900	9.407	
511.000	11.229	
511.100	36.048	
511.200	15.834	
511.300	11.625	
511.400	3.455	
511.500	1.466	
511.600	-0.817	
511.700	36.004	
511.800	29.005	
511.900	-4.945	
512.000	13.222	
512.100	10.618	
512.200	25.143	
512.300	13.238	
512.400	6.185	
512.500	10.337	
512.600	14.494	
512.700	9.208	
512.800	15.478	
512.900	-10.023	
513.000	32.207	
513.100	23.774	
513.200	14.197	
513.300	4.005	
513.400	10.878	
513.500	13.445	
513.600	8.265	
513.700	9.082	
513.800	34.211	
513.900	4.664	
514.000	13.900	
514.100	9.160	
514.200	8.657	
514.300	22.159	
514.400	17.224	
514.500	22.981	
514.600	9.877	
514.700	-1.103	
514.800	18.019	
514.900	6.433	
515.000	23.684	
515.100	19.722	
515.200	14.791	
515.300	1.028	
515.400	26.696	
515.500	33.862	
515.600	15.063	
515.700	3.638	
515.800	27.355	
515.900	24.645	
516.000	33.624	
516.100	12.362	
516.200	15.530	
516.300	4.992	
516.400	35.660	
516.500	14.947	
516.600	14.180	
516.700	29.975	
516.800	12.398	
516.900	30.611	
517.000	2.052	
517.100	3.164	
517.200	-5.927	
517.300	26.803	
517.400	27.895	
517.500	21.714	
517.600	23.499	
517.700	17.197	
517.800	8.246	
517.900	-3.741	
518.000	15.919	
518.100	29.122	
518.200	-10.917	
518.300	9.694	
518.400	15.020	
518.500	30.040	
518.600	15.694	
518.700	20.195	
518.800	30.910	
518.900	13.676	
519.000	10.374	
519.100	9.087	
519.200	6.917	
519.300	22.077	
519.400	14.499	
519.500	5.928	
519.600	15.215	
519.700	16.883	
519.800	11.092	
519.900	23.953	
520.000	9.176	
520.100	14.352	
520.200	27.449	
520.300	15.975	
520.400	23.296	
520.500	30.332	
520.600	7.079	
520.700	26.441	
520.800	14.036	
520.900	13.280	
521.000	16.221	
521.100	30.905	
521.200	17.222	
521.300	-4.107	
521.400	20.319	
521.500	25.291	
521.600	-1.215	
521.700	13.341	
521.800	24.062	
521.900	22.091	
522.000	26.232	
522.100	15.899	
522.200	21.928	
522.300	11.337	
522.400	12.193	
522.500	3.185	
522.600	28.286	
522.700	16.946	
522.800	23.272	
522.900	14.622	
523.000	21.057	
523.100	24.083	
523.200	28.178	
523.300	22.997	
523.400	14.914	
523.500	24.420	
523.600	9.804	
523.700	6.233	
523.800	10.248	
523.900	25.746	
524.000	29.325	
524.100	11.053	
524.200	4.909	
524.300	19.807	
524.400	9.581	
524.500	10.307	
524.600	18.866	
524.700	32.579	
524.800	16.118	
524.900	10.624	
525.000	11.957	
525.100	23.205	
525.200	26.373	
525.300	21.244	
525.400	15.324	
525.500	16.593	
525.600	22.911	
525.700	19.155	
525.800	29.529	
525.900	15.082	
526.000	23.263	
526.100	21.573	
526.200	-11.420	
526.300	8.691	
526.400	19.974	
526.500	18.357	
526.600	28.201	
526.700	28.377	
526.800	11.706	
526.900	17.411	
527.000	23.049	
527.100	12.946	
527.200	2.184	
527.300	15.918	
527.400	26.641	
527.500	17.201	
527.600	25.970	
527.700	13.961	
527.800	17.868	
527.900	17.347	
528.000	10.427	
528.100	18.445	
528.200	21.582	
528.300	4.650	
528.400	27.378	
528.500	27.336	
528.600	5.008	
528.700	49.272	
528.800	14.541	
528.900	18.602	
529.000	19.958	
529.100	14.778	
529.200	16.729	
529.300	23.167	
529.400	18.030	
529.500	11.789	
529.600	20.686	
529.700	22.383	
529.800	13.286	
529.900	21.575	
530.000	22.160	
530.100	10.803	
530.200	30.296	
530.300	27.891	
530.400	22.638	
530.500	16.688	
530.600	8.813	
530.700	10.340	
530.800	21.913	
530.900	27.685	
531.000	21.985	
531.100	13.003	
531.200	27.304	
531.300	22.808	
531.400	4.345	
531.500	30.884	
531.600	24.873	
531.700	23.417	
531.800	11.895	
531.900	23.704	
532.000	6.588	
532.100	16.973	
532.200	22.548	
532.300	19.201	
532.400	17.972	
532.500	11.204	
532.600	26.461	
532.700	1.765	
532.800	20.840	
532.900	19.453	
533.000	32.758	
533.100	21.476	
533.200	17.162	
533.300	23.657	
533.400	32.085	
533.500	16.623	
533.600	3.783	
533.700	21.194	
533.800	0.381	
533.900	6.836	
534.000	25.956	
534.100	9.274	
534.200	16.970	
534.300	22.052	
534.400	14.498	
534.500	0.198	
534.600	1.279	
534.700	29.938	
534.800	12.440	
534.900	10.847	
535.000	11.311	
535.100	12.709	
535.200	16.288	
535.300	14.999	
535.400	13.842	
535.500	17.435	
535.600	11.297	
535.700	17.135	
535.800	24.763	
535.900	9.401	
536.000	15.626	
536.100	22.623	
536.200	-1.833	
536.300	13.712	
536.400	24.574	
536.500	18.303	
536.600	29.552	
536.700	22.562	
536.800	6.631	
536.900	28.942	
537.000	6.161	
537.100	6.688	
537.200	10.737	
537.300	21.186	
537.400	16.665	
537.500	33.980	
537.600	25.032	
537.700	21.079	
537.800	11.060	
537.900	22.728	
538.000	12.589	
538.100	6.396	
538.200	15.604	
538.300	23.836	
538.400	3.652	
538.500	18.016	
538.600	14.316	
538.700	9.283	
538.800	24.528	
538.900	7.407	
539.000	20.212	
539.100	35.460	
539.200	9.856	
539.300	15.716	
539.400	23.168	
539.500	9.257	
539.600	19.495	
539.700	-1.073	
539.800	42.620	
539.900	20.193	
540.000	20.445	
540.100	28.524	
540.200	15.201	
540.300	-0.539	
540.400	18.197	
540.500	17.574	
540.600	8.508	
540.700	20.223	
540.800	5.139	
540.900	13.370	
541.000	-0.789	
541.100	13.793	
541.200	11.850	
541.300	19.179	
541.400	13.221	
541.500	20.967	
541.600	14.727	
541.700	28.829	
541.800	18.078	
541.900	13.075	
542.000	14.701	
542.100	-2.370	
542.200	24.553	
542.300	9.428	
542.400	8.991	
542.500	8.648	
542.600	-21.900	
542.700	22.302	
542.800	-1.344	
542.900	13.588	
543.000	9.409	
543.100	18.221	
543.200	6.358	
543.300	16.452	
543.400	-0.099	
543.500	11.329	
543.600	-17.340	
543.700	15.874	
543.800	-3.408	
543.900	29.131	
544.000	16.138	
544.100	-2.777	
544.200	0.525	
544.300	6.022	
544.400	13.354	
544.500	-5.863	
544.600	10.842	
544.700	18.815	
544.800	8.247	
544.900	20.511	
545.000	-6.297	
545.100	-10.218	
545.200	10.919	
545.300	7.351	
545.400	0.452	
545.500	-7.479	
545.600	-10.317	
545.700	10.125	
545.800	6.775	
545.900	-5.620	
546.000	-11.524	
546.100	10.953	
546.200	4.770	
546.300	-11.190	
546.400	10.310	
546.500	-10.606	
546.600	6.990	
546.700	12.324	
546.800	-16.577	
546.900	-8.119	
547.000	4.444	
547.100	5.280	
547.200	4.287	
547.300	9.058	
547.400	-1.244	
547.500	-19.036	
547.600	-3.541	
547.700	9.258	
547.800	1.813	
547.900	-0.958	
548.000	11.158	
548.100	3.773	
548.200	-2.967	
548.300	-4.893	
548.400	-8.259	
548.500	4.246	
548.600	8.232	
548.700	-2.130	
548.800	17.967	
548.900	3.171	
549.000	1.536	
549.100	3.718	
549.200	-0.609	
549.300	-13.850	
549.400	-10.571	
549.500	11.809	
549.600	-9.543	
549.700	-2.793	
549.800	-9.882	
549.900	-4.729	
550.000	2.430	
550.100	-2.173	
550.200	-17.314	
550.300	-2.626	
550.400	1.223	
550.500	-5.641	
550.600	-18.783	
550.700	-6.091	
550.800	24.587	
550.900	0.347	
551.000	-6.854	
551.100	-9.585	
551.200	-30.169	
551.300	4.744	
551.400	4.269	
551.500	-6.206	
551.600	-14.066	
551.700	5.267	
551.800	-0.837	
551.900	-25.008	
552.000	-0.228	
552.100	-3.888	
552.200	-0.789	
552.300	-9.489	
552.400	4.664	
552.500	-23.669	
552.600	9.400	
552.700	-5.112	
552.800	-1.759	
552.900	-3.657	
553.000	-11.205	
553.100	-17.246	
553.200	5.741	
553.300	-16.344	
553.400	-7.526	
553.500	-23.206	
553.600	-2.547	
553.700	-8.809	
553.800	-5.595	
553.900	-20.318	
554.000	-9.261	
554.100	-11.025	
554.200	-8.237	
554.300	12.937	
554.400	3.771	
554.500	-7.284	
554.600	-12.771	
554.700	12.777	
554.800	0.189	
554.900	2.063	
555.000	-16.106	
555.100	11.975	
555.200	0.895	
555.300	-10.317	
555.400	-9.743	
555.500	3.502	
555.600	-5.301	
555.700	-1.392	
555.800	-9.989	
555.900	-7.155	
556.000	-13.551	
556.100	4.071	
556.200	-8.787	
556.300	2.598	
556.400	-7.941	
556.500	-7.107	
556.600	18.095	
556.700	-12.914	
556.800	-16.314	
556.900	2.347	
557.000	-30.950	
557.100	-9.571	
557.200	-21.485	
557.300	-12.616	
557.400	-20.618	
557.500	-12.775	
557.600	0.470	
557.700	7.240	
557.800	-2.535	
557.900	-15.410	
558.000	5.263	
558.100	-22.780	
558.200	-3.058	
558.300	-19.899	
558.400	18.454	
558.500	-6.247	
558.600	-2.930	
558.700	-7.988	
558.800	-16.042	
558.900	-32.101	
559.000	-2.832	
559.100	-23.672	
559.200	8.990	
559.300	-3.938	
559.400	-23.885	
559.500	-1.887	
559.600	-13.821	
559.700	9.451	
559.800	5.314	
559.900	0.777	
560.000	-9.305	
560.100	-1.346	
560.200	5.526	
560.300	-6.645	
560.400	-7.334	
560.500	2.062	
560.600	-4.201	
560.700	-18.411	
560.800	2.064	
560.900	-10.487	
561.000	7.469	
561.100	-6.086	
561.200	0.180	
561.300	10.790	
561.400	-1.059	
561.500	17.518	
561.600	-10.386	
561.700	-20.523	
561.800	-9.013	
561.900	-5.864	
562.000	0.538	
562.100	12.126	
562.200	6.756	
562.300	-6.621	
562.400	-10.536	
562.500	2.027	
562.600	-12.349	
562.700	4.578	
562.800	-10.380	
562.900	5.735	
563.000	-7.081	
563.100	-5.805	
563.200	-3.118	
563.300	7.365	
563.400	-6.029	
563.500	-2.377	
563.600	2.822	
563.700	-10.614	
563.800	0.977	
563.900	-13.716	
564.000	12.887	
564.100	-11.414	
564.200	-7.103	
564.300	-9.271	
564.400	-9.761	
564.500	-6.225	
564.600	8.797	
564.700	-9.857	
564.800	-11.384	
564.900	1.244	
565.000	-6.838	
565.100	17.069	
565.200	-2.415	
565.300	-4.224	
565.400	-11.306	
565.500	-12.221	
565.600	0.768	
565.700	3.975	
565.800	22.513	
565.900	-9.101	
566.000	-4.296	
566.100	2.302	
566.200	0.825	
566.300	-7.401	
566.400	-10.610	
566.500	-3.331	
566.600	10.521	
566.700	-1.353	
566.800	-7.006	
566.900	-4.646	
567.000	-10.910	
567.100	7.950	
567.200	6.113	
567.300	-9.452	
567.400	-4.265	
567.500	-29.642	
567.600	-10.362	
567.700	11.049	
567.800	-5.422	
567.900	-9.396	
568.000	3.042	
568.100	-15.377	
568.200	9.987	
568.300	-7.190	
568.400	9.420	
568.500	10.361	
568.600	-5.586	
568.700	-10.541	
568.800	-9.028	
568.900	8.265	
569.000	3.131	
569.100	-3.840	
569.200	8.886	
569.300	-15.466	
569.400	-1.592	
569.500	1.248	
569.600	3.684	
569.700	-4.477	
569.800	-18.539	
569.900	-3.741	
570.000	12.318	
570.100	7.442	
570.200	-15.273	
570.300	-13.787	
570.400	2.596	
570.500	-4.536	
570.600	-15.054	
570.700	-5.916	
570.800	0.049	
570.900	-10.376	
571.000	-10.712	
571.100	-1.547	
571.200	-10.538	
571.300	0.545	
571.400	-11.417	
571.500	-15.288	
571.600	3.722	
571.700	6.787	
571.800	7.262	
571.900	7.616	
572.000	-4.190	
572.100	0.030	
572.200	9.896	
572.300	-17.310	
572.400	14.704	
572.500	2.138	
572.600	-9.980	
572.700	-0.284	
572.800	-12.126	
572.900	-9.576	
573.000	-6.063	
573.100	4.482	
573.200	6.101	
573.300	11.592	
573.400	0.086	
573.500	-10.323	
573.600	-1.569	
573.700	-4.533	
573.800	-9.643	
573.900	-17.573	
574.000	2.900	
574.100	2.415	
574.200	4.408	
574.300	8.450	
574.400	-6.125	
574.500	-3.204	
574.600	-9.289	
574.700	6.698	
574.800	-1.164	
574.900	4.887	
575.000	2.908	
575.100	5.417	
575.200	-4.258	
575.300	-14.019	
575.400	3.144	
575.500	4.316	
575.600	-15.220	
575.700	-14.239	
575.800	13.522	
575.900	-3.349	
576.000	-6.819	
576.100	-16.097	
576.200	-3.687	
576.300	-11.580	
576.400	7.976	
576.500	5.229	
576.600	-11.314	
576.700	-0.582	
576.800	11.275	
576.900	-10.025	
577.000	1.132	
577.100	-17.870	
577.200	4.125	
577.300	-0.375	
577.400	-10.393	
577.500	-18.923	
577.600	13.988	
577.700	4.916	
577.800	2.247	
577.900	-2.783	
578.000	-12.040	
578.100	-11.499	
578.200	-8.037	
578.300	-10.423	
578.400	-0.598	
578.500	-15.744	
578.600	-5.474	
578.700	3.587	
578.800	-15.947	
578.900	-11.092	
579.000	6.788	
579.100	15.362	
579.200	-1.799	
579.300	-4.493	
579.400	4.874	
579.500	2.271	
579.600	-13.781	
579.700	7.371	
579.800	5.763	
579.900	-6.431	
580.000	13.320	
580.100	-4.139	
580.200	0.529	
580.300	5.910	
580.400	-5.947	
580.500	5.443	
580.600	-1.522	
580.700	-6.624	
580.800	1.815	
580.900	-8.719	
581.000	0.002	
581.100	-8.996	
581.200	-6.958	
581.300	0.389	
581.400	-8.939	
581.500	-3.842	
581.600	4.321	
581.700	-8.364	
581.800	-20.776	
581.900	13.458	
582.000	3.473	
582.100	-2.064	
582.200	10.067	
582.300	3.831	
582.400	-3.195	
582.500	6.219	
582.600	-15.799	
582.700	-3.821	
582.800	-0.060	
582.900	-18.658	
583.000	-3.785	
583.100	-8.727	
583.200	3.005	
583.300	14.628	
583.400	-2.713	
583.500	-1.932	
583.600	-7.867	
583.700	-1.039	
583.800	2.269	
583.900	-13.028	
584.000	-1.019	
584.100	-4.930	
584.200	13.098	
584.300	-26.816	
584.400	-14.533	
584.500	5.448	
584.600	-13.169	
584.700	9.043	
584.800	-8.086	
584.900	-8.294	
585.000	7.653	
585.100	-4.988	
585.200	-15.427	
585.300	4.387	
585.400	-6.202	
585.500	3.296	
585.600	-7.915	
585.700	3.429	
585.800	0.679	
585.900	-7.682	
586.000	7.538	
586.100	3.489	
586.200	-7.321	
586.300	-3.898	
586.400	-3.610	
586.500	12.957	
586.600	-11.890	
586.700	-2.482	
586.800	-4.521	
586.900	9.916	
587.000	2.364	
587.100	-17.143	
587.200	-12.392	
587.300	0.538	
587.400	-3.944	
587.500	9.132	
587.600	-7.366	
587.700	4.398	
587.800	5.091	
587.900	1.090	
588.000	-4.089	
588.100	17.674	
588.200	-0.085	
588.300	-0.737	
588.400	-5.259	
588.500	7.248	
588.600	-14.704	
588.700	2.579	
588.800	10.028	
588.900	-6.070	
589.000	16.234	
589.100	4.596	
589.200	0.332	
589.300	-4.023	
589.400	-7.865	
589.500	-3.484	
589.600	3.272	
589.700	13.039	
589.800	-2.916	
589.900	-26.743	
590.000	0.218	
590.100	2.574	
590.200	3.273	
590.300	-3.057	
590.400	-4.984	
590.500	6.066	
590.600	9.953	
590.700	-11.917	
590.800	-8.958	
590.900	-0.359	
591.000	-14.319	
591.100	1.115	
591.200	2.699	
591.300	4.037	
591.400	9.629	
591.500	12.565	
591.600	-7.144	
591.700	17.172	
591.800	-3.370	
591.900	19.666	
592.000	-2.001	
592.100	-9.396	
592.200	12.793	
592.300	-21.589	
592.400	3.186	
592.500	-6.246	
592.600	-14.722	
592.700	-8.370	
592.800	-5.881	
592.900	3.868	
593.000	13.803	
593.100	-10.446	
593.200	-7.044	
593.300	-1.143	
593.400	14.010	
593.500	-4.878	
593.600	1.951	
593.700	-3.723	
593.800	3.031	
593.900	1.673	
594.000	9.367	
594.100	-2.181	
594.200	-1.894	
594.300	-27.608	
594.400	-2.997	
594.500	8.261	
594.600	4.062	
594.700	-9.509	
594.800	-9.244	
594.900	-6.238	
595.000	11.936	
595.100	-8.556	
595.200	-5.593	
595.300	14.665	
595.400	-6.941	
595.500	-10.683	
595.600	-2.373	
595.700	9.776	
595.800	7.062	
595.900	-13.092	
596.000	-4.924	
596.100	-17.181	
596.200	-2.391	
596.300	-3.659	
596.400	7.196	
596.500	3.433	
596.600	-3.300	
596.700	7.730	
596.800	-1.117	
596.900	-15.548	
597.000	6.840	
597.100	21.574	
597.200	-2.860	
597.300	-4.282	
597.400	-16.194	
597.500	5.432	
597.600	3.689	
597.700	-3.432	
597.800	3.536	
597.900	2.068	
598.000	5.932	
598.100	-4.926	
598.200	3.156	
598.300	8.103	
598.400	8.956	
598.500	7.533	
598.600	-16.311	
598.700	-8.947	
598.800	-2.119	
598.900	1.317	
599.000	-2.271	
599.100	-0.086	
599.200	-2.944	
599.300	-1.705	
599.400	-0.012	
599.500	-0.966	
599.600	-1.845	
599.700	5.760	
599.800	7.827	
599.900	-8.978	
600.000	-1.229	
600.100	9.045	
600.200	-13.733	
600.300	4.325	
600.400	10.756	
600.500	-7.263	
600.600	1.992	
600.700	-1.669	
600.800	1.894	
600.900	-2.399	
601.000	-10.943	
601.100	-3.098	
601.200	9.178	
601.300	8.146	
601.400	0.416	
601.500	3.821	
601.600	-2.270	
601.700	11.658	
601.800	-2.747	
601.900	-3.284	
602.000	0.475	
602.100	1.962	
602.200	-1.596	
602.300	-6.912	
602.400	8.722	
602.500	1.988	
602.600	0.056	
602.700	6.472	
602.800	13.940	
602.900	-1.822	
603.000	-7.232	
603.100	9.921	
603.200	11.327	
603.300	-9.510	
603.400	10.735	
603.500	-17.113	
603.600	-9.091	
603.700	18.842	
603.800	8.508	
603.900	8.409	
604.000	0.525	
604.100	-10.888	
604.200	-4.657	
604.300	-16.732	
604.400	8.367	
604.500	1.643	
604.600	7.199	
604.700	-19.853	
604.800	8.039	
604.900	4.899	
605.000	21.635	
605.100	-0.769	
605.200	-19.319	
605.300	-14.479	
605.400	4.811	
605.500	0.096	
605.600	14.294	
605.700	-1.468	
605.800	-8.591	
605.900	11.586	
606.000	5.008	
606.100	-15.198	
606.200	9.680	
606.300	-1.803	
606.400	-3.350	
606.500	-1.242	
606.600	0.803	
606.700	1.303	
606.800	-8.684	
606.900	13.322	
607.000	6.629	
607.100	-9.142	
607.200	1.970	
607.300	0.497	
607.400	-8.616	
607.500	0.643	
607.600	10.119	
607.700	4.466	
607.800	-6.217	
607.900	5.365	
608.000	4.681	
608.100	-4.734	
608.200	-17.425	
608.300	1.885	
608.400	-7.013	
608.500	-5.032	
608.600	-2.180	
608.700	8.606	
608.800	1.931	
608.900	8.547	
609.000	-3.783	
609.100	-11.363	
609.200	-13.265	
609.300	-0.576	
609.400	15.743	
609.500	-8.763	
609.600	-8.668	
609.700	13.964	
609.800	-13.049	
609.900	16.309	
610.000	-1.849	
610.100	-1.502	
610.200	8.667	
610.300	-10.335	
610.400	9.391	
610.500	9.278	
610.600	17.297	
610.700	-1.748	
610.800	-0.788	
610.900	-3.556	
611.000	-6.688	
611.100	-4.156	
611.200	-3.734	
611.300	11.538	
611.400	3.250	
611.500	11.788	
611.600	3.609	
611.700	-13.232	
611.800	24.564	
611.900	8.467	
612.000	-6.298	
612.100	1.191	
612.200	-3.306	
612.300	-2.117	
612.400	-2.210	
612.500	3.525	
612.600	-3.341	
612.700	7.079	
612.800	15.763	
612.900	4.547	
613.000	-19.121	
613.100	11.897	
613.200	5.116	
613.300	4.220	
613.400	-0.045	
613.500	6.954	
613.600	-1.126	
613.700	7.675	
613.800	2.022	
613.900	1.527	
614.000	2.266	
614.100	-1.953	
614.200	2.457	
614.300	5.988	
614.400	-3.196	
614.500	-3.948	
614.600	-9.674	
614.700	-3.916	
614.800	4.220	
614.900	15.524	
615.000	11.684	
615.100	-2.876	
615.200	-2.464	
615.300	27.914	
615.400	3.092	
615.500	-2.318	
615.600	6.191	
615.700	-28.215	
615.800	-1.717	
615.900	9.901	
616.000	3.067	
616.100	-0.780	
616.200	7.411	
616.300	6.556	
616.400	17.223	
616.500	-6.272	
616.600	-5.410	
616.700	15.718	
616.800	17.627	
616.900	-4.003	
617.000	7.742	
617.100	11.349	
617.200	13.454	
617.300	4.285	
617.400	-2.167	
617.500	-15.962	
617.600	1.824	
617.700	1.749	
617.800	-2.558	
617.900	24.252	
618.000	4.408	
618.100	13.020	
618.200	-6.268	
618.300	12.571	
618.400	-4.865	
618.500	3.238	
618.600	30.119	
618.700	-10.140	
618.800	-6.995	
618.900	2.035	
619.000	-3.846	
619.100	13.708	
619.200	6.745	
619.300	13.203	
619.400	23.805	
619.500	-0.004	
619.600	3.766	
619.700	13.122	
619.800	-4.101	
619.900	-1.105	
620.000	-9.968	
620.100	6.998	
620.200	-12.322	
620.300	23.186	
620.400	-11.159	
620.500	8.620	
620.600	17.875	
620.700	2.639	
620.800	3.260	
620.900	8.966	
621.000	-10.814	
621.100	-5.079	
621.200	8.868	
621.300	13.555	
621.400	3.722	
621.500	-6.658	
621.600	12.679	
621.700	13.589	
621.800	-6.544	
621.900	-5.394	
622.000	-1.034	
622.100	-4.091	
622.200	8.722	
622.300	-0.172	
622.400	-8.481	
622.500	8.008	
622.600	9.494	
622.700	6.464	
622.800	3.259	
622.900	-2.533	
623.000	10.247	
623.100	17.602	
623.200	11.290	
623.300	-19.460	
623.400	2.317	
623.500	19.901	
623.600	20.114	
623.700	19.308	
623.800	11.661	
623.900	-21.076	
624.000	11.617	
624.100	1.540	
624.200	17.425	
624.300	-1.231	
624.400	-3.825	
624.500	1.394	
624.600	-15.255	
624.700	13.055	
624.800	11.896	
624.900	-15.987	
625.000	13.362	
625.100	0.666	
625.200	9.687	
625.300	1.918	
625.400	3.811	
625.500	-10.816	
625.600	9.989	
625.700	2.241	
625.800	14.095	
625.900	-0.996	
626.000	3.146	
626.100	9.348	
626.200	2.807	
626.300	13.812	
626.400	13.565	
626.500	20.360	
626.600	8.872	
626.700	11.688	
626.800	-5.674	
626.900	-6.318	
627.000	-7.179	
627.100	15.632	
627.200	13.680	
627.300	11.370	
627.400	10.891	
627.500	4.931	
627.600	10.335	
627.700	0.949	
627.800	-0.258	
627.900	14.168	
628.000	14.612	
628.100	-0.210	
628.200	15.263	
628.300	-7.255	
628.400	11.725	
628.500	9.217	
628.600	2.019	
628.700	-17.811	
628.800	11.432	
628.900	-4.325	
629.000	8.579	
629.100	9.521	
629.200	6.738	
629.300	3.754	
629.400	-0.462	
629.500	1.988	
629.600	15.378	
629.700	19.765	
629.800	1.463	
629.900	-7.610	
630.000	17.707	
630.100	-1.482	
630.200	7.419	
630.300	0.863	
630.400	9.065	
630.500	10.203	
630.600	12.659	
630.700	14.284	
630.800	9.562	
630.900	1.278	
631.000	0.183	
631.100	10.911	
631.200	15.348	
631.300	-0.558	
631.400	5.899	
631.500	-4.082	
631.600	11.531	
631.700	26.542	
631.800	23.741	
631.900	13.941	
632.000	16.267	
632.100	18.723	
632.200	-10.300	
632.300	10.439	
632.400	7.364	
632.500	19.444	
632.600	3.435	
632.700	31.765	
632.800	25.727	
632.900	13.188	
633.000	21.521	
633.100	18.875	
633.200	9.299	
633.300	10.503	
633.400	19.047	
633.500	30.569	
633.600	14.897	
633.700	10.735	
633.800	14.776	
633.900	9.863	
634.000	26.408	
634.100	22.939	
634.200	11.989	
634.300	22.112	
634.400	24.992	
634.500	23.357	
634.600	28.744	
634.700	11.887	
634.800	20.408	
634.900	33.932	
635.000	12.296	
635.100	7.634	
635.200	19.860	
635.300	22.316	
635.400	27.774	
635.500	14.414	
635.600	15.080	
635.700	4.440	
635.800	22.786	
635.900	1.416	
636.000	12.468	
636.100	18.745	
636.200	27.928	
636.300	24.552	
636.400	14.416	
636.500	11.369	
636.600	19.818	
636.700	26.027	
636.800	32.448	
636.900	14.635	
637.000	13.556	
637.100	9.048	
637.200	10.690	
637.300	31.438	
637.400	28.780	
637.500	21.148	
637.600	12.074	
637.700	35.987	
637.800	27.855	
637.900	10.185	
638.000	23.155	
638.100	17.302	
638.200	39.974	
638.300	15.536	
638.400	33.584	
638.500	15.473	
638.600	5.241	
638.700	38.969	
638.800	38.084	
638.900	15.792	
639.000	8.475	
639.100	11.938	
639.200	25.969	
639.300	34.342	
639.400	12.681	
639.500	20.106	
639.600	10.972	
639.700	9.515	
639.800	20.147	
639.900	5.455	
640.000	33.098	
640.100	29.323	
640.200	17.232	
640.300	27.201	
640.400	32.624	
640.500	11.747	
640.600	33.045	
640.700	-11.269	
640.800	41.480	
640.900	17.913	
641.000	19.140	
641.100	27.794	
641.200	19.735	
641.300	20.943	
641.400	19.878	
641.500	17.320	
641.600	25.032	
641.700	27.591	
641.800	44.455	
641.900	18.569	
642.000	35.221	
642.100	16.725	
642.200	11.938	
642.300	14.673	
642.400	43.319	
642.500	23.797	
642.600	16.995	
642.700	9.015	
642.800	4.179	
642.900	27.177	
643.000	23.501	
643.100	15.284	
643.200	5.913	
643.300	30.623	
643.400	20.781	
643.500	26.139	
643.600	16.461	
643.700	24.238	
643.800	22.611	
643.900	28.801	
644.000	21.169	
644.100	25.981	
644.200	1.743	
644.300	19.777	
644.400	27.156	
644.500	25.188	
644.600	16.173	
644.700	25.663	
644.800	24.314	
644.900	19.197	
645.000	18.920	
645.100	23.789	
645.200	23.066	
645.300	20.889	
645.400	5.762	
645.500	19.105	
645.600	24.709	
645.700	22.504	
645.800	30.110	
645.900	11.431	
646.000	23.498	
646.100	18.047	
646.200	1.399	
646.300	22.041	
646.400	7.558	
646.500	35.995	
646.600	20.800	
646.700	17.134	
646.800	17.263	
646.900	10.758	
647.000	13.118	
647.100	15.607	
647.200	29.935	
647.300	34.703	
647.400	23.975	
647.500	6.436	
647.600	14.926	
647.700	29.087	
647.800	17.042	
647.900	13.416	
648.000	12.080	
648.100	13.679	
648.200	14.405	
648.300	19.704	
648.400	22.093	
648.500	25.412	
648.600	29.596	
648.700	29.491	
648.800	7.882	
648.900	6.515	
649.000	25.804	
649.100	6.364	
649.200	17.945	
649.300	15.244	
649.400	18.520	
649.500	20.456	
649.600	16.883	
649.700	8.444	
649.800	19.129	
649.900	4.434	
650.000	21.173	
650.100	30.625	
650.200	16.441	
650.300	4.291	
650.400	28.906	
650.500	9.100	
650.600	30.023	
650.700	8.549	
650.800	16.270	
650.900	16.195	
651.000	38.891	
651.100	21.207	
651.200	25.706	
651.300	21.142	
651.400	44.838	
651.500	-1.671	
651.600	12.485	
651.700	28.343	
651.800	20.547	
651.900	13.661	
652.000	19.261	
652.100	25.320	
652.200	-0.098	
652.300	19.534	
652.400	23.340	
652.500	23.071	
652.600	24.395	
652.700	19.811	
652.800	14.230	
652.900	34.242	
653.000	18.670	
653.100	10.134	
653.200	27.248	
653.300	20.552	
653.400	15.369	
653.500	14.601	
653.600	17.107	
653.700	-3.077	
653.800	30.686	
653.900	12.800	
654.000	26.511	
654.100	12.258	
654.200	17.529	
654.300	15.612	
654.400	10.374	
654.500	16.740	
654.600	26.694	
654.700	11.065	
654.800	22.371	
654.900	15.408	
655.000	28.374	
655.100	13.806	
655.200	24.472	
655.300	-1.758	
655.400	1.361	
655.500	31.451	
655.600	15.976	
655.700	28.782	
655.800	20.680	
655.900	14.251	
656.000	12.277	
656.100	21.993	
656.200	7.280	
656.300	27.364	
656.400	20.284	
656.500	14.093	
656.600	20.671	
656.700	7.863	
656.800	9.207	
656.900	13.747	
657.000	-2.881	
657.100	29.622	
657.200	33.450	
657.300	17.914	
657.400	15.937	
657.500	3.361	
657.600	27.573	
657.700	14.799	
657.800	8.202	
657.900	13.133	
658.000	20.034	
658.100	37.737	
658.200	23.288	
658.300	7.183	
658.400	24.804	
658.500	19.060	
658.600	25.060	
658.700	19.759	
658.800	-0.368	
658.900	3.886	
659.000	18.027	
659.100	14.599	
659.200	3.635	
659.300	18.203	
659.400	17.171	
659.500	24.678	
659.600	20.893	
659.700	28.226	
659.800	6.046	
659.900	17.173	
660.000	14.878	
660.100	5.822	
660.200	19.236	
660.300	19.862	
660.400	25.427	
660.500	28.658	
660.600	20.876	
660.700	25.533	
660.800	17.633	
660.900	6.299	
661.000	31.119	
661.100	28.715	
661.200	8.407	
661.300	12.427	
661.400	16.615	
661.500	-0.598	
661.600	17.686	
661.700	19.218	
661.800	17.649	
661.900	20.075	
662.000	13.322	
662.100	1.792	
662.200	28.676	
662.300	-4.519	
662.400	12.263	
662.500	-5.090	
662.600	24.643	
662.700	26.140	
662.800	15.437	
662.900	13.962	
663.000	12.586	
663.100	21.901	
663.200	22.667	
663.300	13.610	
663.400	13.410	
663.500	18.662	
663.600	12.610	
663.700	3.173	
663.800	12.296	
663.900	14.353	
664.000	21.538	
664.100	27.072	
664.200	19.586	
664.300	16.472	
664.400	17.110	
664.500	15.166	
664.600	38.380	
664.700	8.851	
664.800	20.492	
664.900	20.599	
665.000	9.661	
665.100	10.873	
665.200	3.846	
665.300	6.241	
665.400	8.563	
665.500	32.154	
665.600	6.686	
665.700	15.534	
665.800	28.771	
665.900	28.869	
666.000	22.424	
666.100	24.896	
666.200	7.164	
666.300	14.285	
666.400	15.436	
666.500	35.871	
666.600	20.682	
666.700	10.618	
666.800	7.124	
666.900	22.967	
667.000	18.960	
667.100	18.057	
667.200	34.397	
667.300	19.992	
667.400	23.589	
667.500	19.959	
667.600	18.072	
667.700	21.305	
667.800	13.741	
667.900	20.101	
668.000	5.013	
668.100	14.661	
668.200	20.444	
668.300	17.921	
668.400	30.932	
668.500	20.353	
668.600	16.404	
668.700	12.408	
668.800	3.413	
668.900	-2.400	
669.000	22.536	
669.100	11.964	
669.200	4.946	
669.300	-0.343	
669.400	1.432	
669.500	35.134	
669.600	23.233	
669.700	18.859	
669.800	23.048	
669.900	-5.313	
670.000	10.607	
670.100	15.979	
670.200	15.379	
670.300	3.294	
670.400	15.738	
670.500	34.837	
670.600	18.796	
670.700	27.504	
670.800	14.021	
670.900	7.976	
671.000	21.449	
671.100	23.556	
671.200	16.525	
671.300	-2.269	
671.400	16.487	
671.500	32.694	
671.600	5.145	
671.700	14.767	
671.800	6.890	
671.900	7.913	
672.000	7.589	
672.100	19.609	
672.200	18.501	
672.300	23.286	
672.400	28.215	
672.500	12.920	
672.600	16.693	
672.700	8.025	
672.800	34.901	
672.900	31.014	
673.000	17.177	
673.100	8.272	
673.200	22.634	
673.300	28.083	
673.400	-0.091	
673.500	10.321	
673.600	0.141	
673.700	8.496	
673.800	21.954	
673.900	5.786	
674.000	33.967	
674.100	19.441	
674.200	15.498	
674.300	5.576	
674.400	25.456	
674.500	27.401	
674.600	21.602	
674.700	18.819	
674.800	9.268	
674.900	15.220	
675.000	29.597	
675.100	-5.226	
675.200	6.092	
675.300	24.367	
675.400	37.225	
675.500	20.117	
675.600	30.053	
675.700	15.413	
675.800	12.579	
675.900	17.742	
676.000	36.372	
676.100	25.223	
676.200	-1.595	
676.300	17.538	
676.400	5.359	
676.500	25.044	
676.600	14.840	
676.700	29.533	
676.800	18.521	
676.900	18.285	
677.000	16.673	
677.100	16.694	
677.200	10.970	
677.300	31.739	
677.400	8.024	
677.500	20.503	
677.600	8.464	
677.700	33.618	
677.800	37.532	
677.900	7.731	
678.000	6.842	
678.100	-4.690	
678.200	20.198	
678.300	18.592	
678.400	18.722	
678.500	16.888	
678.600	28.455	
678.700	2.264	
678.800	14.673	
678.900	21.608	
679.000	13.442	
679.100	1.298	
679.200	8.416	
679.300	21.386	
679.400	19.156	
679.500	6.610	
679.600	13.699	
679.700	30.884	
679.800	19.713	
679.900	20.556	
680.000	11.617	
680.100	16.489	
680.200	13.555	
680.300	11.454	
680.400	12.056	
680.500	13.779	
680.600	5.980	
680.700	21.242	
680.800	14.656	
680.900	9.723	
681.000	41.375	
681.100	26.789	
681.200	14.032	
681.300	15.025	
681.400	14.573	
681.500	9.277	
681.600	17.837	
681.700	28.420	
681.800	14.680	
681.900	22.747	
682.000	13.214	
682.100	14.536	
682.200	12.443	
682.300	29.704	
682.400	23.631	
682.500	24.373	
682.600	13.864	
682.700	21.792	
682.800	7.183	
682.900	24.661	
683.000	21.107	
683.100	15.781	
683.200	14.268	
683.300	13.123	
683.400	15.919	
683.500	12.049	
683.600	6.313	
683.700	28.341	
683.800	24.048	
683.900	22.525	
684.000	5.512	
684.100	0.712	
684.200	28.404	
684.300	15.045	
684.400	16.826	
684.500	10.236	
684.600	39.568	
684.700	12.671	
684.800	7.978	
684.900	3.738	
685.000	12.059	
685.100	15.959	
685.200	27.448	
685.300	-0.086	
685.400	2.282	
685.500	27.629	
685.600	25.141	
685.700	25.662	
685.800	18.556	
685.900	7.812	
686.000	26.861	
686.100	0.102	
686.200	26.635	
686.300	13.822	
686.400	25.389	
686.500	14.561	
686.600	19.794	
686.700	23.133	
686.800	13.515	
686.900	11.529	
687.000	11.006	
687.100	7.639	
687.200	21.556	
687.300	0.308	
687.400	14.364	
687.500	22.482	
687.600	0.765	
687.700	12.558	
687.800	-6.939	
687.900	28.059	
688.000	11.782	
688.100	7.542	
688.200	17.964	
688.300	14.839	
688.400	14.967	
688.500	3.466	
688.600	31.066	
688.700	29.150	
688.800	9.698	
688.900	5.095	
689.000	26.836	
689.100	10.695	
689.200	13.268	
689.300	33.717	
689.400	9.183	
689.500	15.794	
689.600	18.703	
689.700	13.992	
689.800	22.922	
689.900	16.243	
690.000	5.617	
690.100	10.485	
690.200	26.436	
690.300	16.915	
690.400	23.059	
690.500	14.721	
690.600	13.466	
690.700	12.119	
690.800	32.053	
690.900	1.392	
691.000	5.632	
691.100	1.579	
691.200	29.713	
691.300	6.237	
691.400	4.211	
691.500	5.266	
691.600	8.492	
691.700	15.281	
691.800	10.588	
691.900	11.420	
692.000	9.515	
692.100	-3.367	
692.200	0.756	
692.300	9.430	
692.400	22.147	
692.500	-6.686	
692.600	2.513	
692.700	17.449	
692.800	9.570	
692.900	10.870	
693.000	10.031	
693.100	25.669	
693.200	-10.519	
693.300	13.818	
693.400	6.932	
693.500	23.099	
693.600	28.958	
693.700	8.672	
693.800	7.804	
693.900	-8.484	
694.000	8.112	
694.100	4.802	
694.200	15.025	
694.300	-0.194	
694.400	14.316	
694.500	-3.226	
694.600	14.491	
694.700	-5.641	
694.800	11.996	
694.900	-16.394	
695.000	2.755	
695.100	8.355	
695.200	0.764	
695.300	1.390	
695.400	4.692	
695.500	-1.928	
695.600	9.668	
695.700	7.313	
695.800	-0.149	
695.900	9.786	
696.000	-5.878	
696.100	12.550	
696.200	-1.352	
696.300	4.494	
696.400	4.707	
696.500	1.189	
696.600	-2.723	
696.700	-0.837	
696.800	5.078	
696.900	12.937	
697.000	-11.534	
697.100	5.244	
697.200	-11.855	
697.300	-6.836	
697.400	-2.399	
697.500	-7.356	
697.600	13.633	
697.700	-5.706	
697.800	4.146	
697.900	-7.771	
698.000	-3.425	
698.100	9.196	
698.200	-16.380	
698.300	7.824	
698.400	9.484	
698.500	-3.079	
698.600	-0.401	
698.700	-4.622	
698.800	5.131	
698.900	-4.131	
699.000	-5.536	
699.100	-11.250	
699.200	-7.495	
699.300	6.397	
699.400	12.551	
699.500	-4.631	
699.600	-15.186	
699.700	-5.156	
699.800	-0.982	
699.900	1.750	
700.000	-13.217	
700.100	-0.233	
700.200	1.090	
700.300	-4.375	
700.400	-12.902	
700.500	-1.260	
700.600	7.849	
700.700	-4.241	
700.800	-15.185	
700.900	3.471	
701.000	-8.214	
701.100	-6.389	
701.200	21.188	
701.300	-8.425	
701.400	-14.084	
701.500	-15.363	
701.600	-8.337	
701.700	-6.608	
701.800	-9.699	
701.900	-7.984	
702.000	-1.126	
702.100	-3.526	
702.200	-13.987	
702.300	-11.349	
702.400	-5.264	
702.500	2.435	
702.600	4.212	
702.700	-15.602	
702.800	-17.674	
702.900	2.916	
703.000	-6.132	
703.100	-24.026	
703.200	9.513	
703.300	-1.911	
703.400	-4.548	
703.500	-1.419	
703.600	-4.662	
703.700	-8.695	
703.800	-9.616	
703.900	-5.397	
704.000	-1.221	
704.100	-15.068	
704.200	1.938	
704.300	-1.308	
704.400	-4.848	
704.500	-11.350	
704.600	-1.969	
704.700	-12.190	
704.800	10.264	
704.900	-31.117	
705.000	-4.418	
705.100	-12.306	
705.200	-0.587	
705.300	-2.853	
705.400	-0.058	
705.500	-9.535	
705.600	-13.122	
705.700	-6.551	
705.800	-16.148	
705.900	-5.131	
706.000	1.703	
706.100	-8.076	
706.200	-5.788	
706.300	5.581	
706.400	-0.118	
706.500	-7.853	
706.600	0.458	
706.700	-0.276	
706.800	-3.813	
706.900	0.441	
707.000	-20.735	
707.100	-12.855	
707.200	-6.378	
707.300	-17.538	
707.400	-4.848	
707.500	-5.488	
707.600	-17.339	
707.700	-13.488	
707.800	8.399	
707.900	-0.201	
708.000	-21.820	
708.100	-6.923	
708.200	-7.624	
708.300	0.870	
708.400	4.011	
708.500	-25.940	
708.600	4.016	
708.700	-14.503	
708.800	5.014	
708.900	-7.720	
709.000	0.814	
709.100	-25.692	
709.200	6.822	
709.300	-6.032	
709.400	-5.417	
709.500	-6.468	
709.600	-0.990	
709.700	13.651	
709.800	-5.159	
709.900	-24.198	
710.000	2.335	
710.100	-12.036	
710.200	8.180	
710.300	11.763	
710.400	-24.263	
710.500	-15.228	
710.600	-1.440	
710.700	0.269	
710.800	-12.518	
710.900	-2.713	
711.000	-18.761	
711.100	3.290	
711.200	-2.282	
711.300	-1.226	
711.400	-5.554	
711.500	-24.962	
711.600	-16.038	
711.700	-17.224	
711.800	-10.132	
711.900	-10.818	
712.000	2.546	
712.100	-13.571	
712.200	-3.013	
712.300	-6.411	
712.400	-5.628	
712.500	-0.251	
712.600	-16.311	
712.700	9.715	
712.800	11.141	
712.900	-19.997	
713.000	-7.802	
713.100	2.879	
713.200	-6.640	
713.300	-2.298	
713.400	-5.533	
713.500	-0.337	
713.600	-1.295	
713.700	-0.713	
713.800	-8.475	
713.900	-3.501	
714.000	1.030	
714.100	1.386	
714.200	-11.834	
714.300	-3.500	
714.400	-12.031	
714.500	5.826	
714.600	5.268	
714.700	-28.690	
714.800	8.696	
714.900	-8.883	
715.000	13.027	
715.100	3.173	
715.200	-9.875	
715.300	-5.044	
715.400	-15.160	
715.500	-1.604	
715.600	0.719	
715.700	-6.445	
715.800	0.925	
715.900	-11.439	
716.000	4.242	
716.100	-3.462	
716.200	-7.229	
716.300	-0.229	
716.400	9.993	
716.500	-5.110	
716.600	1.600	
716.700	7.936	
716.800	-26.571	
716.900	-6.221	
717.000	7.476	
717.100	4.371	
717.200	-15.692	
717.300	-0.804	
717.400	-25.881	
717.500	-1.304	
717.600	-7.720	
717.700	2.067	
717.800	6.884	
717.900	-40.928	
718.000	9.203	
718.100	-5.447	
718.200	-1.900	
718.300	-19.043	
718.400	-11.848	
718.500	-8.786	
718.600	-15.845	
718.700	-12.029	
718.800	-1.938	
718.900	-1.945	
719.000	-13.063	
719.100	1.174	
719.200	8.327	
719.300	8.220	
719.400	-0.086	
719.500	-5.758	
719.600	24.551	
719.700	-9.944	
719.800	-7.658	
719.900	0.457	
720.000	2.102	
720.100	-1.081	
720.200	-7.355	
720.300	-12.918	
720.400	-3.497	
720.500	-8.383	
720.600	-5.627	
720.700	-10.575	
720.800	4.368	
720.900	0.399	
721.000	-17.357	
721.100	-2.721	
721.200	-11.254	
721.300	6.924	
721.400	-17.511	
721.500	-11.587	
721.600	-21.317	
721.700	12.346	
721.800	0.812	
721.900	-8.335	
722.000	0.645	
722.100	11.617	
722.200	-3.939	
722.300	-0.888	
722.400	-6.092	
722.500	-1.037	
722.600	10.399	
722.700	-16.209	
722.800	-0.805	
722.900	-18.386	
723.000	-3.615	
723.100	4.337	
723.200	0.738	
723.300	-6.444	
723.400	-13.376	
723.500	-4.658	
723.600	-0.288	
723.700	-11.577	
723.800	-4.375	
723.900	-5.414	
724.000	-0.637	
724.100	-4.043	
724.200	1.347	
724.300	-19.540	
724.400	-3.887	
724.500	-19.633	
724.600	-37.010	
724.700	-6.369	
724.800	0.650	
724.900	7.221	
725.000	-8.002	
725.100	-7.820	
725.200	-6.298	
725.300	-9.997	
725.400	-19.576	
725.500	5.918	
725.600	-6.502	
725.700	2.621	
725.800	8.189	
725.900	-3.009	
726.000	-16.513	
726.100	7.136	
726.200	-5.930	
726.300	-1.877	
726.400	-4.367	
726.500	-14.793	
726.600	2.442	
726.700	15.343	
726.800	-5.304	
726.900	-2.321	
727.000	-22.375	
727.100	-13.042	
727.200	-21.778	
727.300	-22.040	
727.400	-12.969	
727.500	0.109	
727.600	9.168	
727.700	-2.904	
727.800	-9.812	
727.900	6.664	
728.000	-11.497	
728.100	-10.421	
728.200	-8.159	
728.300	-2.316	
728.400	-23.821	
728.500	-4.403	
728.600	-8.033	
728.700	2.191	
728.800	-19.105	
728.900	-6.067	
729.000	-6.412	
729.100	14.898	
729.200	-4.986	
729.300	-10.065	
729.400	6.596	
729.500	-2.771	
729.600	4.897	
729.700	-2.640	
729.800	-1.255	
729.900	-0.311	
730.000	-23.401	
730.100	-7.680	
730.200	12.594	
730.300	-7.268	
730.400	0.474	
730.500	-0.035	
730.600	-13.381	
730.700	-13.924	
730.800	-3.009	
730.900	4.712	
731.000	-8.738	
731.100	-7.937	
731.200	-3.225	
731.300	9.053	
731.400	5.316	
731.500	-4.955	
731.600	-10.869	
731.700	2.114	
731.800	-2.628	
731.900	-10.851	
732.000	-5.632	
732.100	2.216	
732.200	-7.948	
732.300	4.760	
732.400	-6.123	
732.500	2.347	
732.600	-1.680	
732.700	9.617	
732.800	-20.647	
732.900	-10.456	
733.000	-7.083	
733.100	0.828	
733.200	-0.549	
733.300	-4.201	
733.400	-15.236	
733.500	-8.753	
733.600	-14.971	
733.700	-5.399	
733.800	-1.058	
733.900	-11.149	
734.000	-9.040	
734.100	-7.781	
734.200	-8.994	
734.300	10.534	
734.400	-2.884	
734.500	-22.386	
734.600	-12.149	
734.700	10.040	
734.800	6.907	
734.900	3.571	
735.000	9.456	
735.100	-9.213	
735.200	1.208	
735.300	-7.945	
735.400	-9.375	
735.500	-1.459	
735.600	-1.457	
735.700	-6.456	
735.800	7.637	
735.900	6.116	
736.000	5.753	
736.100	-3.997	
736.200	9.739	
736.300	5.136	
736.400	4.150	
736.500	-6.706	
736.600	-0.480	
736.700	-8.578	
736.800	6.018	
736.900	0.457	
737.000	-5.398	
737.100	-21.750	
737.200	1.028	
737.300	4.639	
737.400	4.247	
737.500	1.811	
737.600	-3.268	
737.700	6.030	
737.800	-7.948	
737.900	4.545	
738.000	4.509	
738.100	0.111	
738.200	-11.233	
738.300	0.578	
738.400	-6.335	
738.500	-17.366	
738.600	17.821	
738.700	-3.416	
738.800	-1.962	
738.900	-14.275	
739.000	-8.315	
739.100	0.940	
739.200	6.673	
739.300	1.625	
739.400	-11.293	
739.500	2.934	
739.600	-7.044	
739.700	-10.001	
739.800	1.142	
739.900	-11.515	
740.000	-4.401	
740.100	12.434	
740.200	-7.673	
740.300	3.961	
740.400	0.233	
740.500	-3.129	
740.600	5.212	
740.700	13.591	
740.800	-0.738	
740.900	-16.076	
741.000	-3.320	
741.100	1.128	
741.200	5.279	
741.300	-5.843	
741.400	0.304	
741.500	6.494	
741.600	-1.055	
741.700	2.919	
741.800	4.645	
741.900	-15.951	
742.000	-10.857	
742.100	15.728	
742.200	3.115	
742.300	-0.485	
742.400	-22.269	
742.500	-7.441	
742.600	-9.062	
742.700	-1.094	
742.800	18.787	
742.900	17.388	
743.000	-4.862	
743.100	9.551	
743.200	-12.550	
743.300	1.575	
743.400	-9.411	
743.500	10.553	
743.600	11.683	
743.700	-0.532	
743.800	-3.692	
743.900	-9.976	
744.000	12.645	
744.100	14.793	
744.200	-1.791	
744.300	-2.648	
744.400	4.605	
744.500	2.947	
744.600	-11.531	
744.700	16.179	
744.800	5.946	
744.900	-8.245	
745.000	12.416	
745.100	-12.425	
745.200	-4.856	
745.300	0.001	
745.400	-2.220	
745.500	3.913	
745.600	11.338	
745.700	-16.585	
745.800	2.862	
745.900	7.887	
746.000	-10.747	
746.100	16.074	
746.200	15.902	
746.300	-1.402	
746.400	7.410	
746.500	-0.285	
746.600	7.718	
746.700	4.100	
746.800	3.771	
746.900	-1.964	
747.000	8.805	
747.100	-10.575	
747.200	0.256	
747.300	-17.537	
747.400	-12.715	
747.500	13.622	
747.600	-3.151	
747.700	20.791	
747.800	-0.467	
747.900	-8.795	
748.000	11.569	
748.100	-7.382	
748.200	-8.453	
748.300	-7.466	
748.400	21.923	
748.500	-0.920	
748.600	1.780	
748.700	14.074	
748.800	-6.474	
748.900	11.792	
749.000	-4.270	
749.100	7.130	
749.200	1.535	
749.300	10.315	
749.400	-3.488	
749.500	-12.596	
749.600	11.929	
749.700	11.867	
749.800	-1.925	
749.900	4.260	
750.000	12.484	
750.100	0.684	
750.200	1.171	
750.300	-16.115	
750.400	10.504	
750.500	-12.417	
750.600	7.626	
750.700	12.701	
750.800	7.962	
750.900	6.182	
751.000	0.242	
751.100	-8.336	
751.200	-1.802	
751.300	2.443	
751.400	-5.453	
751.500	-7.619	
751.600	9.325	
751.700	6.273	
751.800	1.508	
751.900	3.758	
752.000	0.644	
752.100	1.806	
752.200	9.196	
752.300	-5.218	
752.400	-4.229	
752.500	5.672	
752.600	-4.219	
752.700	-2.913	
752.800	8.106	
752.900	-8.454	
753.000	-5.700	
753.100	4.757	
753.200	2.119	
753.300	4.293	
753.400	1.591	
753.500	6.174	
753.600	-3.532	
753.700	-17.230	
753.800	1.127	
753.900	-2.816	
754.000	4.694	
754.100	4.313	
754.200	-1.858	
754.300	-6.001	
754.400	-4.798	
754.500	14.225	
754.600	0.700	
754.700	13.752	
754.800	-6.561	
754.900	2.622	
755.000	4.521	
755.100	5.784	
755.200	-9.847	
755.300	-9.168	
755.400	2.666	
755.500	-0.396	
755.600	0.291	
755.700	-1.344	
755.800	-5.971	
755.900	0.408	
756.000	5.798	
756.100	11.674	
756.200	4.030	
756.300	-4.584	
756.400	14.100	
756.500	2.103	
756.600	-12.067	
756.700	-3.057	
756.800	-7.703	
756.900	8.967	
757.000	8.616	
757.100	-0.140	
757.200	-4.094	
757.300	-3.907	
757.400	-1.074	
757.500	2.461	
757.600	-3.996	
757.700	-3.649	
757.800	0.341	
757.900	4.162	
758.000	-28.620	
758.100	2.730	
758.200	1.401	
758.300	1.515	
758.400	-0.516	
758.500	-15.649	
758.600	-3.809	
758.700	-10.880	
758.800	-9.363	
758.900	13.239	
759.000	-10.015	
759.100	-2.942	
759.200	0.617	
759.300	3.758	
759.400	5.670	
759.500	3.285	
759.600	6.379	
759.700	-1.801	
759.800	7.475	
759.900	-13.285	
760.000	9.128	
760.100	-9.764	
760.200	1.027	
760.300	15.545	
760.400	-1.729	
760.500	-3.117	
760.600	9.222	
760.700	-21.158	
760.800	-7.544	
760.900	4.916	
761.000	13.175	
761.100	-0.342	
761.200	3.745	
761.300	5.560	
761.400	5.154	
761.500	4.265	
761.600	-6.019	
761.700	12.608	
761.800	-0.684	
761.900	-0.196	
762.000	3.042	
762.100	-4.476	
762.200	-15.847	
762.300	11.819	
762.400	-16.783	
762.500	11.286	
762.600	-11.247	
762.700	1.795	
762.800	15.614	
762.900	-2.686	
763.000	10.698	
763.100	-13.173	
763.200	7.727	
763.300	4.875	
763.400	-11.763	
763.500	9.163	
763.600	-18.829	
763.700	10.925	
763.800	3.649	
763.900	-11.041	
764.000	-6.186	
764.100	0.303	
764.200	-11.937	
764.300	5.161	
764.400	6.117	
764.500	6.339	
764.600	5.327	
764.700	0.689	
764.800	5.658	
764.900	8.089	
765.000	16.291	
765.100	7.992	
765.200	16.503	
765.300	4.910	
765.400	3.765	
765.500	7.481	
765.600	4.967	
765.700	-3.829	
765.800	2.614	
765.900	-0.221	
766.000	-20.094	
766.100	-9.162	
766.200	-2.442	
766.300	5.619	
766.400	-0.918	
766.500	4.623	
766.600	3.924	
766.700	7.327	
766.800	2.629	
766.900	-6.164	
767.000	5.135	
767.100	-0.552	
767.200	-3.085	
767.300	7.570	
767.400	-17.509	
767.500	7.555	
767.600	18.986	
767.700	8.674	
767.800	3.019	
767.900	8.220	
768.000	-0.882	
768.100	6.107	
768.200	3.095	
768.300	-6.133	
768.400	22.892	
768.500	12.735	
768.600	4.869	
768.700	-11.252	
768.800	7.131	
768.900	11.224	
769.000	9.044	
769.100	-1.002	
769.200	6.253	
769.300	0.005	
769.400	14.303	
769.500	5.584	
769.600	-0.768	
769.700	2.717	
769.800	4.830	
769.900	-8.499	
770.000	-5.210	
770.100	6.699	
770.200	4.583	
770.300	12.045	
770.400	-9.448	
770.500	6.448	
770.600	7.835	
770.700	5.065	
770.800	5.846	
770.900	9.525	
771.000	12.603	
771.100	3.226	
771.200	-5.164	
771.300	-2.392	
771.400	-12.074	
771.500	-7.029	
771.600	-10.037	
771.700	17.102	
771.800	9.519	
771.900	-11.217	
772.000	8.423	
772.100	8.820	
772.200	24.250	
772.300	1.949	
772.400	-3.475	
772.500	-13.122	
772.600	-10.714	
772.700	18.240	
772.800	5.809	
772.900	10.372	
773.000	-0.102	
773.100	-6.986	
773.200	2.593	
773.300	16.802	
773.400	-2.771	
773.500	-3.803	
773.600	15.797	
773.700	-9.316	
773.800	4.764	
773.900	2.137	
774.000	6.045	
774.100	11.121	
774.200	11.414	
774.300	-5.223	
774.400	-1.713	
774.500	17.327	
774.600	10.042	
774.700	13.026	
774.800	17.705	
774.900	3.325	
775.000	-2.968	
775.100	-27.197	
775.200	-6.290	
775.300	-4.754	
775.400	8.950	
775.500	3.984	
775.600	11.360	
775.700	-7.901	
775.800	17.880	
775.900	15.327	
776.000	9.505	
776.100	2.740	
776.200	14.901	
776.300	5.553	
776.400	2.160	
776.500	-1.846	
776.600	19.536	
776.700	-2.435	
776.800	4.825	
776.900	-11.879	
777.000	-6.114	
777.100	-9.497	
777.200	4.048	
777.300	4.605	
777.400	-8.204	
777.500	8.812	
777.600	9.814	
777.700	-6.443	
777.800	2.274	
777.900	5.240	
778.000	12.309	
778.100	5.143	
778.200	2.216	
778.300	16.994	
778.400	5.096	
778.500	-1.389	
778.600	-10.815	
778.700	0.712	
778.800	9.518	
778.900	-5.544	
779.000	5.040	
779.100	-14.418	
779.200	4.894	
779.300	10.942	
779.400	6.828	
779.500	6.263	
779.600	-9.988	
779.700	13.474	
779.800	-6.966	
779.900	3.924	
780.000	2.590	
780.100	9.790	
780.200	-4.407	
780.300	22.959	
780.400	-8.283	
780.500	-8.793	
780.600	-0.067	
780.700	8.377	
780.800	0.780	
780.900	9.024	
781.000	2.555	
781.100	3.691	
781.200	3.891	
781.300	6.806	
781.400	24.494	
781.500	25.480	
781.600	22.751	
781.700	9.865	
781.800	-5.027	
781.900	14.254	
782.000	13.485	
782.100	10.286	
782.200	11.270	
782.300	-1.696	
782.400	25.083	
782.500	19.049	
782.600	4.755	
782.700	21.766	
782.800	11.829	
782.900	-15.962	
783.000	7.036	
783.100	15.460	
783.200	15.883	
783.300	8.740	
783.400	27.982	
783.500	19.615	
783.600	28.215	
783.700	18.578	
783.800	10.198	
783.900	3.087	
784.000	38.029	
784.100	23.583	
784.200	21.865	
784.300	14.272	
784.400	15.274	
784.500	30.280	
784.600	24.759	
784.700	12.576	
784.800	17.002	
784.900	23.645	
785.000	20.056	
785.100	19.755	
785.200	18.717	
785.300	14.012	
785.400	-9.636	
785.500	17.089	
785.600	25.716	
785.700	27.164	
785.800	21.958	
785.900	18.342	
786.000	21.919	
786.100	2.267	
786.200	18.446	
786.300	12.144	
786.400	10.908	
786.500	19.405	
786.600	17.678	
786.700	15.901	
786.800	14.482	
786.900	30.836	
787.000	11.771	
787.100	20.773	
787.200	28.163	
787.300	18.911	
787.400	10.445	
787.500	19.501	
787.600	12.668	
787.700	14.439	
787.800	20.405	
787.900	18.073	
788.000	18.373	
788.100	12.865	
788.200	28.036	
788.300	18.567	
788.400	13.690	
788.500	15.513	
788.600	13.678	
788.700	35.160	
788.800	11.650	
788.900	7.200	
789.000	17.639	
789.100	35.024	
789.200	23.336	
789.300	27.778	
789.400	16.407	
789.500	12.487	
789.600	13.372	
789.700	11.395	
789.800	27.256	
789.900	21.525	
790.000	17.932	
790.100	20.831	
790.200	29.960	
790.300	3.277	
790.400	19.154	
790.500	27.272	
790.600	23.716	
790.700	32.192	
790.800	10.738	
790.900	26.852	
791.000	17.188	
791.100	10.549	
791.200	-0.516	
791.300	28.130	
791.400	25.168	
791.500	24.232	
791.600	25.946	
791.700	8.043	
791.800	17.472	
791.900	12.871	
792.000	8.735	
792.100	51.653	
792.200	23.099	
792.300	8.521	
792.400	39.158	
792.500	19.095	
792.600	12.231	
792.700	3.600	
792.800	26.275	
792.900	-4.748	
793.000	17.915	
793.100	27.252	
793.200	21.840	
793.300	19.159	
793.400	7.861	
793.500	3.898	
793.600	15.554	
793.700	27.262	
793.800	22.531	
793.900	20.134	
794.000	16.574	
794.100	14.603	
794.200	3.443	
794.300	10.156	
794.400	7.115	
794.500	23.965	
794.600	29.206	
794.700	19.354	
794.800	25.620	
794.900	23.190	
795.000	14.133	
795.100	24.572	
795.200	15.432	
795.300	1.553	
795.400	15.688	
795.500	8.103	
795.600	17.576	
795.700	19.022	
795.800	24.860	
795.900	12.000	
796.000	-0.401	
796.100	35.605	
796.200	19.685	
796.300	20.584	
796.400	0.774	
796.500	16.859	
796.600	29.246	
796.700	16.052	
796.800	19.824	
796.900	7.366	
797.000	1.370	
797.100	24.368	
797.200	20.224	
797.300	24.980	
797.400	-4.887	
797.500	27.469	
797.600	15.471	
797.700	15.923	
797.800	4.801	
797.900	-3.270	
798.000	1.315	
798.100	16.434	
798.200	21.671	
798.300	26.510	
798.400	13.841	
798.500	30.672	
798.600	3.637	
798.700	24.147	
798.800	31.140	
798.900	19.928	
799.000	6.310	
799.100	25.352	
799.200	11.221	
799.300	4.416	
799.400	24.072	
799.500	9.338	
799.600	15.369	
799.700	11.526	
799.800	22.713	
799.900	22.498	
800.000	10.133	
