time /s	I /nA	
0.100	28.763	
0.200	21.503	
0.300	3.135	
0.400	7.827	
0.500	-6.713	
0.600	-8.945	
0.700	-15.063	
0.800	7.182	
0.900	-9.719	
1.000	14.930	
1.100	-7.552	
1.200	11.526	
1.300	0.474	
1.400	-0.227	
1.500	10.899	
1.600	3.524	
1.700	-25.012	
1.800	-2.444	
1.900	-4.947	
2.000	-2.819	
2.100	15.460	
2.200	-17.708	
2.300	1.773	
2.400	-3.998	
2.500	6.070	
2.600	3.000	
2.700	-5.810	
2.800	13.565	
2.900	-3.704	
3.000	0.692	
3.100	3.075	
3.200	-9.378	
3.300	8.382	
3.400	17.820	
3.500	-14.648	
3.600	-0.725	
3.700	8.359	
3.800	-5.126	
3.900	18.032	
4.000	10.338	
4.100	-10.100	
4.200	-1.149	
4.300	-12.020	
4.400	5.327	
4.500	9.264	
4.600	8.999	
4.700	5.906	
4.800	-22.399	
4.900	-5.016	
5.000	7.294	
5.100	10.830	
5.200	-3.246	
5.300	13.980	
5.400	6.323	
5.500	-14.313	
5.600	-4.563	
5.700	25.875	
5.800	0.829	
5.900	-6.080	
6.000	10.356	
6.100	2.880	
6.200	-2.137	
6.300	8.080	
6.400	4.500	
6.500	14.582	
6.600	0.526	
6.700	-8.431	
6.800	3.609	
6.900	-8.150	
7.000	4.384	
7.100	-12.133	
7.200	-12.760	
7.300	-0.455	
7.400	9.724	
7.500	0.789	
7.600	0.168	
7.700	-14.230	
7.800	11.712	
7.900	-6.267	
8.000	15.158	
8.100	5.763	
8.200	10.566	
8.300	3.335	
8.400	-0.325	
8.500	7.511	
8.600	-2.021	
8.700	-12.398	
8.800	-1.403	
8.900	-22.894	
9.000	-10.351	
9.100	11.413	
9.200	20.868	
9.300	-9.797	
9.400	12.752	
9.500	-9.273	
9.600	5.447	
9.700	5.400	
9.800	2.356	
9.900	0.889	
10.000	-10.953	
10.100	-8.899	
10.200	-18.543	
10.300	-2.273	
10.400	4.031	
10.500	-3.950	
10.600	-1.680	
10.700	15.731	
10.800	21.276	
10.900	2.450	
11.000	8.525	
11.100	0.151	
11.200	6.850	
11.300	-10.467	
11.400	8.194	
11.500	-12.290	
11.600	-4.013	
11.700	5.534	
11.800	-3.635	
11.900	18.394	
12.000	1.583	
12.100	-10.104	
12.200	5.036	
12.300	-6.500	
12.400	-4.528	
12.500	-15.129	
12.600	6.445	
12.700	-3.513	
12.800	-1.499	
12.900	-4.816	
13.000	-2.643	
13.100	4.612	
13.200	-13.363	
13.300	6.958	
13.400	-14.456	
13.500	20.021	
13.600	-7.222	
13.700	-18.896	
13.800	-4.438	
13.900	11.445	
14.000	-2.625	
14.100	-18.257	
14.200	-12.610	
14.300	23.314	
14.400	-5.776	
14.500	-20.679	
14.600	-9.077	
14.700	-7.338	
14.800	-6.251	
14.900	-19.595	
15.000	3.798	
15.100	9.587	
15.200	4.913	
15.300	-8.129	
15.400	-11.831	
15.500	0.991	
15.600	-7.153	
15.700	-4.322	
15.800	8.671	
15.900	-16.210	
16.000	-4.509	
16.100	-2.480	
16.200	-11.193	
16.300	12.679	
16.400	14.859	
16.500	-25.338	
16.600	-17.672	
16.700	11.621	
16.800	-0.147	
16.900	-1.066	
17.000	-7.644	
17.100	-26.779	
17.200	8.762	
17.300	-0.375	
17.400	-19.268	
17.500	19.978	
17.600	7.400	
17.700	-2.850	
17.800	9.036	
17.900	-19.877	
18.000	-10.617	
18.100	9.651	
18.200	13.821	
18.300	-12.368	
18.400	3.390	
18.500	9.408	
18.600	-2.009	
18.700	-0.416	
18.800	4.150	
18.900	-2.756	
19.000	-12.159	
19.100	-7.959	
19.200	8.258	
19.300	-6.939	
19.400	-4.661	
19.500	6.193	
19.600	0.003	
19.700	-0.577	
19.800	-3.036	
19.900	-8.102	
20.000	-8.720	
20.100	2.332	
20.200	23.553	
20.300	9.695	
20.400	-2.669	
20.500	-3.544	
20.600	6.980	
20.700	1.480	
20.800	-5.423	
20.900	-8.996	
21.000	-6.011	
21.100	-24.349	
21.200	-2.136	
21.300	6.046	
21.400	6.557	
21.500	17.437	
21.600	-14.075	
21.700	0.749	
21.800	-9.575	
21.900	7.383	
22.000	-0.799	
22.100	-10.236	
22.200	-8.320	
22.300	-8.273	
22.400	-7.657	
22.500	7.535	
22.600	12.897	
22.700	-20.696	
22.800	-8.143	
22.900	-13.502	
23.000	-8.840	
23.100	-0.510	
23.200	-17.242	
23.300	3.980	
23.400	5.302	
23.500	-25.252	
23.600	-20.994	
23.700	-6.021	
23.800	5.846	
23.900	-17.427	
24.000	11.183	
24.100	0.856	
24.200	-6.596	
24.300	1.349	
24.400	15.670	
24.500	-0.124	
24.600	1.709	
24.700	-30.617	
24.800	1.446	
24.900	-6.685	
25.000	15.474	
25.100	-8.274	
25.200	-8.885	
25.300	-25.345	
25.400	3.875	
25.500	13.426	
25.600	-16.021	
25.700	-14.642	
25.800	19.896	
25.900	-7.242	
26.000	-12.671	
26.100	10.684	
26.200	0.630	
26.300	1.630	
26.400	-11.718	
26.500	-9.605	
26.600	-8.137	
26.700	15.474	
26.800	2.982	
26.900	-6.162	
27.000	-6.348	
27.100	-9.496	
27.200	16.669	
27.300	-7.076	
27.400	7.981	
27.500	-12.970	
27.600	-15.374	
27.700	2.271	
27.800	8.879	
27.900	-5.094	
28.000	-4.732	
28.100	-2.797	
28.200	-15.533	
28.300	-12.506	
28.400	-11.087	
28.500	19.492	
28.600	13.654	
28.700	-10.744	
28.800	2.435	
28.900	-1.461	
29.000	-4.221	
29.100	0.443	
29.200	-0.115	
29.300	-2.390	
29.400	6.492	
29.500	-3.297	
29.600	6.732	
29.700	-14.594	
29.800	-9.867	
29.900	-9.171	
30.000	5.986	
30.100	0.651	
30.200	3.767	
30.300	-3.416	
30.400	-18.328	
30.500	-1.197	
30.600	-15.842	
30.700	14.044	
30.800	11.578	
30.900	-1.958	
31.000	-15.107	
31.100	-1.863	
31.200	-12.322	
31.300	-0.847	
31.400	9.604	
31.500	20.945	
31.600	4.067	
31.700	-14.284	
31.800	8.512	
31.900	12.649	
32.000	11.141	
32.100	-0.188	
32.200	-7.547	
32.300	-5.800	
32.400	1.736	
32.500	12.184	
32.600	10.688	
32.700	6.498	
32.800	5.276	
32.900	2.781	
33.000	-14.038	
33.100	2.036	
33.200	12.887	
33.300	5.565	
33.400	-0.547	
33.500	-16.428	
33.600	-5.542	
33.700	-6.989	
33.800	-1.308	
33.900	4.143	
34.000	-14.900	
34.100	28.942	
34.200	21.581	
34.300	-2.233	
34.400	-1.240	
34.500	3.888	
34.600	-17.594	
34.700	-0.970	
34.800	8.087	
34.900	1.517	
35.000	19.809	
35.100	8.443	
35.200	-4.823	
35.300	-5.535	
35.400	3.899	
35.500	20.521	
35.600	-3.052	
35.700	8.663	
35.800	-5.462	
35.900	-22.722	
36.000	6.950	
36.100	4.823	
36.200	2.343	
36.300	0.100	
36.400	7.313	
36.500	7.001	
36.600	14.272	
36.700	5.914	
36.800	7.367	
36.900	2.254	
37.000	7.499	
37.100	3.051	
37.200	11.042	
37.300	5.059	
37.400	14.029	
37.500	-0.808	
37.600	-0.651	
37.700	21.387	
37.800	10.712	
37.900	5.005	
38.000	10.262	
38.100	-12.811	
38.200	14.746	
38.300	11.668	
38.400	0.414	
38.500	16.338	
38.600	-5.130	
38.700	8.534	
38.800	2.127	
38.900	7.463	
39.000	8.512	
39.100	-1.677	
39.200	0.476	
39.300	1.176	
39.400	7.818	
39.500	6.794	
39.600	4.417	
39.700	0.255	
39.800	-2.853	
39.900	8.798	
40.000	1.930	
40.100	8.031	
40.200	-1.884	
40.300	26.750	
40.400	0.347	
40.500	-5.777	
40.600	15.118	
40.700	21.066	
40.800	7.061	
40.900	5.184	
41.000	-10.136	
41.100	-19.429	
41.200	1.042	
41.300	19.583	
41.400	3.922	
41.500	5.045	
41.600	0.311	
41.700	2.223	
41.800	21.908	
41.900	10.304	
42.000	12.910	
42.100	2.703	
42.200	2.484	
42.300	1.484	
42.400	-4.880	
42.500	20.848	
42.600	21.355	
42.700	-14.509	
42.800	6.123	
42.900	3.430	
43.000	6.938	
43.100	13.725	
43.200	8.169	
43.300	-6.717	
43.400	6.023	
43.500	-3.044	
43.600	8.823	
43.700	4.013	
43.800	2.482	
43.900	3.451	
44.000	-10.038	
44.100	-8.143	
44.200	2.313	
44.300	15.341	
44.400	19.062	
44.500	-6.779	
44.600	-2.306	
44.700	1.738	
44.800	2.619	
44.900	12.327	
45.000	2.771	
45.100	-5.867	
45.200	34.592	
45.300	13.569	
45.400	-2.556	
45.500	20.082	
45.600	-11.640	
45.700	-7.901	
45.800	4.375	
45.900	24.450	
46.000	0.536	
46.100	19.428	
46.200	1.645	
46.300	-10.572	
46.400	9.871	
46.500	23.889	
46.600	0.651	
46.700	-1.612	
46.800	1.504	
46.900	8.187	
47.000	14.131	
47.100	-4.465	
47.200	7.053	
47.300	8.051	
47.400	-0.461	
47.500	-2.918	
47.600	11.461	
47.700	-0.891	
47.800	13.626	
47.900	21.690	
48.000	14.281	
48.100	-9.235	
48.200	5.512	
48.300	13.429	
48.400	14.731	
48.500	11.003	
48.600	-7.515	
48.700	-4.675	
48.800	23.994	
48.900	16.393	
49.000	14.472	
49.100	14.456	
49.200	5.051	
49.300	12.298	
49.400	-15.708	
49.500	20.367	
49.600	15.252	
49.700	-3.421	
49.800	-3.573	
49.900	3.387	
50.000	0.797	
50.100	8.845	
50.200	13.696	
50.300	-4.141	
50.400	-1.431	
50.500	8.344	
50.600	23.501	
50.700	8.730	
50.800	22.643	
50.900	15.363	
51.000	4.410	
51.100	10.964	
51.200	21.343	
51.300	16.470	
51.400	18.150	
51.500	-6.047	
51.600	1.728	
51.700	8.970	
51.800	22.059	
51.900	7.591	
52.000	-17.007	
52.100	22.166	
52.200	-3.205	
52.300	13.198	
52.400	-0.212	
52.500	23.978	
52.600	6.735	
52.700	4.926	
52.800	5.506	
52.900	4.599	
53.000	18.577	
53.100	23.131	
53.200	9.923	
53.300	9.154	
53.400	12.033	
53.500	13.275	
53.600	17.032	
53.700	-7.541	
53.800	15.368	
53.900	-13.701	
54.000	-10.968	
54.100	22.396	
54.200	-11.390	
54.300	22.923	
54.400	13.051	
54.500	0.268	
54.600	5.541	
54.700	6.049	
54.800	9.946	
54.900	23.837	
55.000	11.239	
55.100	-7.412	
55.200	-2.826	
55.300	27.471	
55.400	-16.958	
55.500	3.043	
55.600	7.731	
55.700	9.309	
55.800	4.265	
55.900	25.584	
56.000	5.162	
56.100	3.639	
56.200	14.807	
56.300	-2.207	
56.400	9.012	
56.500	5.808	
56.600	22.931	
56.700	4.559	
56.800	1.644	
56.900	-12.698	
57.000	6.818	
57.100	20.831	
57.200	-6.067	
57.300	3.938	
57.400	9.877	
57.500	-8.276	
57.600	7.458	
57.700	20.936	
57.800	10.663	
57.900	8.006	
58.000	-6.840	
58.100	-3.904	
58.200	8.401	
58.300	24.650	
58.400	6.846	
58.500	1.244	
58.600	-11.974	
58.700	11.608	
58.800	22.444	
58.900	-3.010	
59.000	15.389	
59.100	13.343	
59.200	17.634	
59.300	-3.488	
59.400	-3.951	
59.500	16.155	
59.600	16.484	
59.700	3.332	
59.800	-3.022	
59.900	13.884	
60.000	14.822	
60.100	3.177	
60.200	3.671	
60.300	2.440	
60.400	7.683	
60.500	20.252	
60.600	5.522	
60.700	20.571	
60.800	9.727	
60.900	-3.957	
61.000	17.731	
61.100	6.639	
61.200	12.511	
61.300	-3.119	
61.400	8.839	
61.500	0.834	
61.600	8.878	
61.700	22.783	
61.800	18.443	
61.900	9.279	
62.000	10.249	
62.100	18.640	
62.200	-10.764	
62.300	17.043	
62.400	26.699	
62.500	13.751	
62.600	4.267	
62.700	11.225	
62.800	-2.412	
62.900	12.821	
63.000	2.678	
63.100	3.559	
63.200	11.218	
63.300	8.450	
63.400	11.614	
63.500	33.563	
63.600	0.031	
63.700	7.100	
63.800	-13.360	
63.900	-11.190	
64.000	19.931	
64.100	26.159	
64.200	4.895	
64.300	4.045	
64.400	3.974	
64.500	13.333	
64.600	11.836	
64.700	6.114	
64.800	3.997	
64.900	10.423	
65.000	-11.388	
65.100	16.173	
65.200	11.472	
65.300	30.729	
65.400	21.330	
65.500	-3.812	
65.600	6.941	
65.700	9.672	
65.800	11.400	
65.900	1.762	
66.000	6.053	
66.100	7.448	
66.200	-11.293	
66.300	8.728	
66.400	22.856	
66.500	11.529	
66.600	18.275	
66.700	2.060	
66.800	-6.024	
66.900	-4.126	
67.000	9.269	
67.100	13.475	
67.200	-3.357	
67.300	-4.173	
67.400	-1.562	
67.500	6.364	
67.600	20.710	
67.700	12.633	
67.800	18.501	
67.900	10.761	
68.000	-4.258	
68.100	1.686	
68.200	23.415	
68.300	16.362	
68.400	3.164	
68.500	3.840	
68.600	11.887	
68.700	6.284	
68.800	16.170	
68.900	-0.070	
69.000	-12.096	
69.100	-14.114	
69.200	13.252	
69.300	7.422	
69.400	22.181	
69.500	5.423	
69.600	1.070	
69.700	10.083	
69.800	-4.227	
69.900	18.355	
70.000	-3.985	
70.100	6.209	
70.200	4.524	
70.300	-15.294	
70.400	-6.442	
70.500	15.992	
70.600	15.974	
70.700	7.981	
70.800	11.363	
70.900	-11.341	
71.000	8.767	
71.100	2.253	
71.200	23.749	
71.300	1.498	
71.400	10.932	
71.500	8.875	
71.600	0.451	
71.700	15.699	
71.800	7.683	
71.900	-14.930	
72.000	24.982	
72.100	12.934	
72.200	-1.151	
72.300	0.874	
72.400	15.930	
72.500	-13.568	
72.600	22.598	
72.700	22.979	
72.800	14.235	
72.900	13.802	
73.000	-0.215	
73.100	-4.244	
73.200	14.178	
73.300	-0.904	
73.400	19.118	
73.500	17.444	
73.600	-0.325	
73.700	-2.331	
73.800	-18.504	
73.900	2.129	
74.000	9.989	
74.100	31.702	
74.200	17.044	
74.300	3.337	
74.400	11.608	
74.500	18.654	
74.600	6.495	
74.700	10.597	
74.800	7.029	
74.900	-4.273	
75.000	-6.975	
75.100	16.120	
75.200	14.654	
75.300	0.069	
75.400	-3.631	
75.500	9.326	
75.600	26.500	
75.700	21.868	
75.800	15.239	
75.900	8.931	
76.000	-13.369	
76.100	0.982	
76.200	13.921	
76.300	19.188	
76.400	-4.875	
76.500	11.832	
76.600	11.564	
76.700	7.023	
76.800	-8.156	
76.900	5.100	
77.000	15.818	
77.100	7.595	
77.200	-4.574	
77.300	-7.575	
77.400	12.323	
77.500	20.515	
77.600	-0.141	
77.700	5.669	
77.800	3.360	
77.900	2.270	
78.000	22.085	
78.100	1.903	
78.200	10.212	
78.300	11.440	
78.400	-6.161	
78.500	-0.735	
78.600	32.372	
78.700	18.048	
78.800	-5.137	
78.900	2.590	
79.000	6.483	
79.100	5.005	
79.200	35.212	
79.300	18.119	
79.400	-29.572	
79.500	-20.365	
79.600	-4.232	
79.700	15.584	
79.800	11.605	
79.900	16.184	
80.000	4.805	
80.100	7.145	
80.200	-8.737	
80.300	4.568	
80.400	21.444	
80.500	12.014	
80.600	0.371	
80.700	-3.798	
80.800	-4.155	
80.900	2.240	
81.000	24.326	
81.100	-5.916	
81.200	6.063	
81.300	1.941	
81.400	-7.210	
81.500	-12.007	
81.600	-11.821	
81.700	13.166	
81.800	-2.253	
81.900	-10.158	
82.000	-10.529	
82.100	13.118	
82.200	27.155	
82.300	11.968	
82.400	-23.388	
82.500	-14.314	
82.600	13.999	
82.700	13.959	
82.800	-8.864	
82.900	-13.322	
83.000	3.747	
83.100	-1.716	
83.200	6.906	
83.300	14.655	
83.400	23.446	
83.500	0.786	
83.600	5.736	
83.700	-9.412	
83.800	-8.872	
83.900	2.751	
84.000	1.145	
84.100	-6.116	
84.200	-4.151	
84.300	-0.364	
84.400	10.725	
84.500	10.896	
84.600	11.229	
84.700	-6.607	
84.800	-11.866	
84.900	3.545	
85.000	-2.538	
85.100	-2.078	
85.200	-2.716	
85.300	13.396	
85.400	-26.992	
85.500	16.940	
85.600	-20.118	
85.700	-5.533	
85.800	8.178	
85.900	8.532	
86.000	-5.052	
86.100	-11.145	
86.200	-7.882	
86.300	6.765	
86.400	-8.695	
86.500	11.050	
86.600	1.910	
86.700	23.087	
86.800	12.034	
86.900	-8.675	
87.000	1.257	
87.100	1.327	
87.200	-10.983	
87.300	-2.788	
87.400	-1.306	
87.500	1.692	
87.600	0.808	
87.700	1.717	
87.800	-9.683	
87.900	2.795	
88.000	6.939	
88.100	-10.874	
88.200	-11.205	
88.300	-8.244	
88.400	-10.159	
88.500	3.209	
88.600	12.908	
88.700	-0.201	
88.800	-0.439	
88.900	1.373	
89.000	-24.517	
89.100	10.385	
89.200	12.993	
89.300	-1.038	
89.400	11.777	
89.500	-4.022	
89.600	-17.568	
89.700	19.949	
89.800	-5.272	
89.900	7.850	
90.000	-4.426	
90.100	0.308	
90.200	1.497	
90.300	-2.181	
90.400	21.607	
90.500	-9.390	
90.600	0.459	
90.700	-4.650	
90.800	-7.986	
90.900	11.687	
91.000	2.247	
91.100	-17.200	
91.200	-4.030	
91.300	-4.656	
91.400	-8.892	
91.500	3.829	
91.600	-7.536	
91.700	-12.608	
91.800	1.003	
91.900	0.808	
92.000	-0.233	
92.100	16.923	
92.200	-1.410	
92.300	-5.028	
92.400	-3.653	
92.500	2.709	
92.600	4.302	
92.700	-10.968	
92.800	-0.759	
92.900	-5.657	
93.000	-7.239	
93.100	-11.581	
93.200	-4.803	
93.300	-0.353	
93.400	-1.621	
93.500	-1.336	
93.600	1.661	
93.700	-16.687	
93.800	-0.834	
93.900	-23.847	
94.000	3.136	
94.100	4.879	
94.200	-4.598	
94.300	-16.440	
94.400	-12.170	
94.500	-11.944	
94.600	1.722	
94.700	4.975	
94.800	-26.246	
94.900	-2.236	
95.000	11.887	
95.100	-2.723	
95.200	-17.619	
95.300	-12.456	
95.400	7.328	
95.500	-3.663	
95.600	-10.484	
95.700	7.241	
95.800	0.332	
95.900	-20.308	
96.000	-20.379	
96.100	23.513	
96.200	-2.269	
96.300	-19.654	
96.400	-13.738	
96.500	-1.744	
96.600	-7.011	
96.700	-16.282	
96.800	-10.063	
96.900	5.379	
97.000	-5.571	
97.100	-22.609	
97.200	-10.857	
97.300	-2.892	
97.400	-11.626	
97.500	4.693	
97.600	-8.004	
97.700	-5.980	
97.800	0.004	
97.900	7.590	
98.000	4.155	
98.100	-13.354	
98.200	-16.309	
98.300	-1.336	
98.400	-2.158	
98.500	-10.139	
98.600	1.859	
98.700	-6.623	
98.800	-5.515	
98.900	0.555	
99.000	11.948	
99.100	8.321	
99.200	-1.303	
99.300	-12.814	
99.400	-17.163	
99.500	-6.884	
99.600	-2.212	
99.700	-3.792	
99.800	9.140	
99.900	-8.196	
100.000	0.077	
100.100	-28.877	
100.200	-3.843	
100.300	-0.743	
100.400	3.748	
100.500	-11.241	
100.600	-23.125	
100.700	-3.547	
100.800	8.884	
100.900	7.701	
101.000	-11.552	
101.100	-2.269	
101.200	8.321	
101.300	-8.366	
101.400	-4.097	
101.500	2.867	
101.600	-16.254	
101.700	-23.588	
101.800	3.898	
101.900	-5.827	
102.000	-12.655	
102.100	-3.449	
102.200	17.898	
102.300	-10.082	
102.400	12.078	
102.500	-4.130	
102.600	-9.323	
102.700	7.735	
102.800	-17.125	
102.900	-9.540	
103.000	-23.736	
103.100	-8.374	
103.200	10.608	
103.300	7.909	
103.400	1.183	
103.500	-21.990	
103.600	-0.247	
103.700	-1.166	
103.800	0.780	
103.900	0.355	
104.000	-17.496	
104.100	-5.167	
104.200	-19.556	
104.300	1.763	
104.400	-12.733	
104.500	-1.112	
104.600	12.143	
104.700	-4.977	
104.800	-6.400	
104.900	-2.767	
105.000	-10.042	
105.100	-11.905	
105.200	-2.600	
105.300	6.106	
105.400	-13.919	
105.500	-2.654	
105.600	3.418	
105.700	-0.839	
105.800	-11.341	
105.900	-31.326	
106.000	-5.435	
106.100	2.843	
106.200	-6.603	
106.300	-6.287	
106.400	-6.169	
106.500	-38.392	
106.600	7.102	
106.700	3.288	
106.800	-1.625	
106.900	-14.633	
107.000	-11.972	
107.100	-13.878	
107.200	-7.568	
107.300	-2.528	
107.400	13.450	
107.500	-12.388	
107.600	-9.360	
107.700	-24.641	
107.800	-2.081	
107.900	1.069	
108.000	-6.645	
108.100	-7.470	
108.200	-0.250	
108.300	12.068	
108.400	17.468	
108.500	-9.298	
108.600	-4.600	
108.700	-3.167	
108.800	-9.607	
108.900	-4.091	
109.000	-4.671	
109.100	24.494	
109.200	-4.899	
109.300	-25.426	
109.400	4.412	
109.500	4.869	
109.600	-12.845	
109.700	-8.764	
109.800	5.984	
109.900	-5.066	
110.000	-4.042	
110.100	-14.701	
110.200	14.466	
110.300	3.382	
110.400	-13.703	
110.500	-25.917	
110.600	9.742	
110.700	9.947	
110.800	-1.774	
110.900	-8.291	
111.000	-0.226	
111.100	-17.399	
111.200	-12.261	
111.300	-17.329	
111.400	-0.621	
111.500	-2.278	
111.600	-14.350	
111.700	-29.974	
111.800	-4.696	
111.900	13.487	
112.000	-10.744	
112.100	4.108	
112.200	12.274	
112.300	-8.419	
112.400	-18.126	
112.500	-1.649	
112.600	0.059	
112.700	-8.355	
112.800	-15.511	
112.900	-15.690	
113.000	0.778	
113.100	-1.530	
113.200	-14.719	
113.300	-26.437	
113.400	-8.251	
113.500	-12.627	
113.600	-10.492	
113.700	-2.088	
113.800	-6.373	
113.900	3.802	
114.000	-12.948	
114.100	-7.378	
114.200	-10.951	
114.300	-9.634	
114.400	8.912	
114.500	-5.962	
114.600	-12.616	
114.700	-2.683	
114.800	-11.329	
114.900	-7.537	
115.000	5.755	
115.100	6.931	
115.200	4.636	
115.300	-18.561	
115.400	-2.379	
115.500	7.658	
115.600	-5.501	
115.700	-24.816	
115.800	-14.948	
115.900	-13.899	
116.000	1.480	
116.100	-0.718	
116.200	-16.174	
116.300	0.151	
116.400	-15.883	
116.500	-25.517	
116.600	-4.544	
116.700	-16.776	
116.800	-4.459	
116.900	-17.763	
117.000	-3.486	
117.100	-10.845	
117.200	-2.609	
117.300	0.284	
117.400	-10.885	
117.500	2.952	
117.600	-32.638	
117.700	-14.181	
117.800	-3.351	
117.900	-1.899	
118.000	-6.872	
118.100	-13.934	
118.200	7.092	
118.300	-9.243	
118.400	-8.358	
118.500	-16.330	
118.600	-20.504	
118.700	-26.226	
118.800	3.752	
118.900	5.551	
119.000	-14.032	
119.100	12.641	
119.200	-2.184	
119.300	-19.904	
119.400	-20.424	
119.500	-8.294	
119.600	5.966	
119.700	1.056	
119.800	-30.629	
119.900	-16.257	
120.000	-5.995	
120.100	21.296	
120.200	-0.729	
120.300	5.499	
120.400	-2.806	
120.500	1.189	
120.600	9.637	
120.700	-5.972	
120.800	9.888	
120.900	-14.321	
121.000	-11.176	
121.100	-14.759	
121.200	-18.933	
121.300	-0.447	
121.400	-7.022	
121.500	-16.097	
121.600	-11.846	
121.700	-6.882	
121.800	-1.497	
121.900	-5.693	
122.000	-4.230	
122.100	10.569	
122.200	-10.085	
122.300	-10.909	
122.400	10.038	
122.500	-29.271	
122.600	6.387	
122.700	2.414	
122.800	-13.050	
122.900	0.864	
123.000	6.206	
123.100	-0.854	
123.200	-0.719	
123.300	8.868	
123.400	-4.424	
123.500	-17.695	
123.600	-2.504	
123.700	-5.746	
123.800	4.109	
123.900	-4.819	
124.000	-2.632	
124.100	-2.077	
124.200	0.693	
124.300	12.569	
124.400	-8.645	
124.500	10.609	
124.600	-15.688	
124.700	-6.156	
124.800	-2.492	
124.900	7.056	
125.000	7.745	
125.100	-3.145	
125.200	-0.465	
125.300	-7.350	
125.400	-0.054	
125.500	-3.598	
125.600	5.177	
125.700	-12.187	
125.800	-17.247	
125.900	-5.980	
126.000	2.944	
126.100	-1.943	
126.200	-10.923	
126.300	0.936	
126.400	-3.833	
126.500	3.349	
126.600	0.861	
126.700	2.520	
126.800	-36.708	
126.900	-10.178	
127.000	10.667	
127.100	-6.492	
127.200	-15.991	
127.300	-4.127	
127.400	-7.938	
127.500	-19.611	
127.600	1.882	
127.700	-5.536	
127.800	-3.898	
127.900	-4.982	
128.000	-23.488	
128.100	-15.686	
128.200	7.151	
128.300	9.028	
128.400	-12.544	
128.500	-17.367	
128.600	-10.073	
128.700	-5.481	
128.800	5.042	
128.900	10.438	
129.000	18.304	
129.100	-3.349	
129.200	2.329	
129.300	-10.105	
129.400	3.018	
129.500	-10.116	
129.600	-13.337	
129.700	-8.939	
129.800	1.656	
129.900	-4.431	
130.000	13.366	
130.100	3.634	
130.200	-4.043	
130.300	-20.692	
130.400	-6.549	
130.500	5.126	
130.600	2.565	
130.700	18.685	
130.800	0.540	
130.900	-12.724	
131.000	-4.260	
131.100	3.443	
131.200	2.041	
131.300	3.418	
131.400	0.537	
131.500	-3.990	
131.600	7.588	
131.700	-9.728	
131.800	-21.959	
131.900	-1.799	
132.000	8.367	
132.100	-21.094	
132.200	8.828	
132.300	-4.689	
132.400	0.509	
132.500	-4.796	
132.600	6.448	
132.700	-3.749	
132.800	-11.028	
132.900	-6.278	
133.000	-18.350	
133.100	16.229	
133.200	0.184	
133.300	-7.974	
133.400	1.279	
133.500	1.136	
133.600	-12.042	
133.700	-12.285	
133.800	2.124	
133.900	-39.621	
134.000	8.822	
134.100	0.626	
134.200	8.076	
134.300	0.870	
134.400	-1.626	
134.500	-0.947	
134.600	-11.733	
134.700	22.470	
134.800	2.256	
134.900	-5.513	
135.000	3.593	
135.100	-3.896	
135.200	1.347	
135.300	7.517	
135.400	-15.082	
135.500	-5.036	
135.600	-1.368	
135.700	-2.653	
135.800	-6.935	
135.900	11.223	
136.000	-0.585	
136.100	4.799	
136.200	-10.688	
136.300	-14.517	
136.400	-7.584	
136.500	9.909	
136.600	-1.751	
136.700	-9.114	
136.800	-13.588	
136.900	-14.821	
137.000	1.541	
137.100	15.790	
137.200	15.291	
137.300	-9.340	
137.400	-5.198	
137.500	-8.204	
137.600	8.755	
137.700	-2.116	
137.800	-1.244	
137.900	4.929	
138.000	-18.904	
138.100	-6.084	
138.200	19.615	
138.300	5.392	
138.400	-2.479	
138.500	-5.417	
138.600	3.514	
138.700	4.280	
138.800	5.893	
138.900	-6.173	
139.000	-4.229	
139.100	11.256	
139.200	1.891	
139.300	-1.915	
139.400	11.853	
139.500	24.323	
139.600	-12.834	
139.700	5.757	
139.800	-1.483	
139.900	-11.733	
140.000	19.457	
140.100	-4.800	
140.200	1.298	
140.300	6.225	
140.400	24.841	
140.500	-8.616	
140.600	5.560	
140.700	3.819	
140.800	-5.880	
140.900	4.555	
141.000	-14.302	
141.100	6.527	
141.200	4.857	
141.300	-6.323	
141.400	-9.018	
141.500	-5.311	
141.600	0.523	
141.700	13.892	
141.800	4.400	
141.900	-10.949	
142.000	-14.234	
142.100	-22.381	
142.200	3.644	
142.300	-1.712	
142.400	7.256	
142.500	9.346	
142.600	0.293	
142.700	-5.573	
142.800	3.075	
142.900	6.944	
143.000	5.110	
143.100	-11.950	
143.200	13.415	
143.300	-0.748	
143.400	-11.211	
143.500	-9.578	
143.600	13.176	
143.700	-6.967	
143.800	8.302	
143.900	-9.234	
144.000	0.260	
144.100	14.820	
144.200	-0.052	
144.300	-3.460	
144.400	-0.390	
144.500	13.896	
144.600	-0.423	
144.700	17.079	
144.800	-5.673	
144.900	-7.092	
145.000	-7.805	
145.100	3.735	
145.200	-6.438	
145.300	5.008	
145.400	5.129	
145.500	-5.842	
145.600	-1.006	
145.700	-21.026	
145.800	0.240	
145.900	-3.426	
146.000	17.220	
146.100	-0.206	
146.200	0.917	
146.300	0.172	
146.400	-5.044	
146.500	5.125	
146.600	-2.092	
146.700	0.156	
146.800	-19.203	
146.900	4.480	
147.000	15.142	
147.100	-6.229	
147.200	2.421	
147.300	-1.525	
147.400	3.722	
147.500	5.184	
147.600	7.707	
147.700	-7.150	
147.800	-5.119	
147.900	-21.686	
148.000	2.017	
148.100	4.917	
148.200	23.232	
148.300	18.894	
148.400	8.678	
148.500	1.298	
148.600	-6.137	
148.700	-9.456	
148.800	6.463	
148.900	-5.250	
149.000	24.683	
149.100	7.950	
149.200	-5.391	
149.300	9.239	
149.400	0.205	
149.500	19.967	
149.600	-4.764	
149.700	-4.494	
149.800	-5.924	
149.900	-1.691	
150.000	21.022	
150.100	13.177	
150.200	7.155	
150.300	-9.315	
150.400	12.591	
150.500	18.029	
150.600	-3.610	
150.700	-3.194	
150.800	-13.061	
150.900	3.883	
151.000	-19.425	
151.100	6.218	
151.200	-4.700	
151.300	-15.174	
151.400	14.901	
151.500	-8.159	
151.600	-4.586	
151.700	1.178	
151.800	11.629	
151.900	-10.272	
152.000	-7.393	
152.100	12.648	
152.200	10.963	
152.300	14.566	
152.400	8.506	
152.500	10.747	
152.600	-7.790	
152.700	6.977	
152.800	0.990	
152.900	2.537	
153.000	9.333	
153.100	10.273	
153.200	5.761	
153.300	-6.602	
153.400	-3.539	
153.500	3.515	
153.600	20.081	
153.700	5.715	
153.800	4.943	
153.900	1.129	
154.000	10.878	
154.100	0.270	
154.200	11.946	
154.300	4.425	
154.400	3.698	
154.500	6.239	
154.600	8.013	
154.700	10.903	
154.800	-0.015	
154.900	13.632	
155.000	-1.609	
155.100	4.358	
155.200	15.766	
155.300	11.622	
155.400	-3.305	
155.500	7.336	
155.600	-8.023	
155.700	9.446	
155.800	7.386	
155.900	19.801	
156.000	-14.021	
156.100	11.476	
156.200	-3.202	
156.300	12.637	
156.400	26.036	
156.500	1.199	
156.600	10.980	
156.700	-4.351	
156.800	-3.085	
156.900	-0.200	
157.000	14.043	
157.100	15.478	
157.200	7.848	
157.300	17.567	
157.400	10.989	
157.500	0.737	
157.600	3.706	
157.700	1.739	
157.800	12.016	
157.900	3.964	
158.000	10.555	
158.100	-5.139	
158.200	-8.046	
158.300	12.161	
158.400	6.580	
158.500	9.459	
158.600	7.756	
158.700	-5.681	
158.800	20.271	
158.900	0.590	
159.000	-3.458	
159.100	-8.356	
159.200	-4.072	
159.300	13.208	
159.400	20.913	
159.500	2.671	
159.600	-12.372	
159.700	-17.588	
159.800	3.740	
159.900	1.911	
160.000	7.357	
160.100	1.808	
160.200	7.499	
160.300	6.208	
160.400	-5.736	
160.500	16.140	
160.600	9.713	
160.700	-3.842	
160.800	1.633	
160.900	9.827	
161.000	-3.146	
161.100	10.715	
161.200	7.688	
161.300	-9.484	
161.400	-13.325	
161.500	-2.037	
161.600	4.179	
161.700	13.927	
161.800	-6.473	
161.900	-8.757	
162.000	-11.751	
162.100	23.237	
162.200	6.722	
162.300	-18.117	
162.400	10.910	
162.500	-10.263	
162.600	-1.919	
162.700	8.264	
162.800	11.696	
162.900	-2.568	
163.000	4.853	
163.100	3.935	
163.200	3.653	
163.300	2.211	
163.400	6.100	
163.500	-3.712	
163.600	11.876	
163.700	10.231	
163.800	-10.342	
163.900	-12.269	
164.000	18.054	
164.100	19.230	
164.200	-11.913	
164.300	-1.336	
164.400	-17.689	
164.500	2.057	
164.600	5.362	
164.700	-13.934	
164.800	9.145	
164.900	-10.444	
165.000	21.027	
165.100	3.103	
165.200	13.043	
165.300	7.032	
165.400	2.844	
165.500	-7.778	
165.600	17.367	
165.700	1.634	
165.800	17.553	
165.900	-15.175	
166.000	11.374	
166.100	-0.303	
166.200	2.794	
166.300	6.176	
166.400	6.467	
166.500	-0.500	
166.600	-10.370	
166.700	-7.901	
166.800	-10.270	
166.900	9.223	
167.000	10.979	
167.100	-12.712	
167.200	-2.051	
167.300	10.964	
167.400	4.420	
167.500	6.531	
167.600	-3.804	
167.700	-3.931	
167.800	-1.141	
167.900	-4.192	
168.000	7.533	
168.100	10.314	
168.200	12.097	
168.300	-7.621	
168.400	20.096	
168.500	5.653	
168.600	3.722	
168.700	-8.128	
168.800	-0.298	
168.900	-17.831	
169.000	7.261	
169.100	6.151	
169.200	13.015	
169.300	-4.253	
169.400	-16.795	
169.500	-18.846	
169.600	-1.071	
169.700	7.632	
169.800	8.344	
169.900	8.945	
170.000	-2.873	
170.100	-12.361	
170.200	-13.190	
170.300	16.987	
170.400	-3.236	
170.500	14.314	
170.600	-4.624	
170.700	-13.616	
170.800	-16.571	
170.900	4.488	
171.000	6.190	
171.100	4.707	
171.200	10.913	
171.300	-17.092	
171.400	7.253	
171.500	13.052	
171.600	-13.866	
171.700	-3.468	
171.800	1.351	
171.900	6.081	
172.000	15.262	
172.100	-0.353	
172.200	2.684	
172.300	17.678	
172.400	-6.560	
172.500	-13.890	
172.600	-1.351	
172.700	4.416	
172.800	-4.649	
172.900	-6.197	
173.000	22.202	
173.100	-15.760	
173.200	9.923	
173.300	8.637	
173.400	5.141	
173.500	-18.679	
173.600	2.647	
173.700	-6.419	
173.800	-5.614	
173.900	26.154	
174.000	-0.653	
174.100	-1.935	
174.200	3.241	
174.300	-13.497	
174.400	5.808	
174.500	17.563	
174.600	-6.667	
174.700	-17.386	
174.800	5.814	
174.900	1.948	
175.000	-2.562	
175.100	-1.273	
175.200	-2.702	
175.300	-5.921	
175.400	-4.657	
175.500	8.349	
175.600	-14.828	
175.700	4.635	
175.800	6.361	
175.900	-5.905	
176.000	1.765	
176.100	11.440	
176.200	16.535	
176.300	-18.757	
176.400	-3.825	
176.500	-9.173	
176.600	-3.036	
176.700	-5.398	
176.800	21.841	
176.900	10.737	
177.000	-6.610	
177.100	-28.876	
177.200	0.916	
177.300	-1.198	
177.400	-1.281	
177.500	4.224	
177.600	-7.399	
177.700	-10.616	
177.800	10.061	
177.900	-16.037	
178.000	6.010	
178.100	-5.610	
178.200	0.958	
178.300	-5.710	
178.400	5.712	
178.500	7.612	
178.600	6.644	
178.700	-1.375	
178.800	-18.694	
178.900	-3.288	
179.000	-2.627	
179.100	-11.928	
179.200	3.889	
179.300	1.631	
179.400	-13.126	
179.500	-2.633	
179.600	6.804	
179.700	3.550	
179.800	0.606	
179.900	-3.934	
180.000	-12.720	
180.100	3.088	
180.200	-8.601	
180.300	8.491	
180.400	-1.131	
180.500	0.910	
180.600	-11.064	
180.700	-23.739	
180.800	8.043	
180.900	9.298	
181.000	-5.466	
181.100	3.735	
181.200	5.849	
181.300	5.480	
181.400	-6.160	
181.500	2.732	
181.600	17.041	
181.700	6.415	
181.800	0.449	
181.900	-19.991	
182.000	14.522	
182.100	22.389	
182.200	-7.660	
182.300	12.910	
182.400	-14.742	
182.500	-11.321	
182.600	15.873	
182.700	8.513	
182.800	16.367	
182.900	-4.579	
183.000	2.139	
183.100	-3.372	
183.200	16.922	
183.300	-13.786	
183.400	17.985	
183.500	15.277	
183.600	-13.810	
183.700	-21.348	
183.800	43.257	
183.900	8.597	
184.000	3.957	
184.100	-9.474	
184.200	25.691	
184.300	17.453	
184.400	-0.328	
184.500	16.006	
184.600	13.341	
184.700	-13.769	
184.800	0.815	
184.900	18.142	
185.000	14.135	
185.100	32.000	
185.200	0.545	
185.300	10.631	
185.400	4.310	
185.500	14.660	
185.600	9.521	
185.700	18.186	
185.800	4.068	
185.900	3.859	
186.000	13.388	
186.100	7.687	
186.200	25.617	
186.300	19.623	
186.400	-5.580	
186.500	20.874	
186.600	14.355	
186.700	4.739	
186.800	16.800	
186.900	-15.791	
187.000	-10.074	
187.100	8.879	
187.200	6.344	
187.300	22.423	
187.400	18.558	
187.500	-7.990	
187.600	12.279	
187.700	17.006	
187.800	0.196	
187.900	16.121	
188.000	-11.993	
188.100	5.013	
188.200	5.064	
188.300	-2.152	
188.400	6.205	
188.500	12.576	
188.600	17.474	
188.700	8.420	
188.800	-2.626	
188.900	16.566	
189.000	25.601	
189.100	26.143	
189.200	-8.083	
189.300	20.501	
189.400	24.250	
189.500	-4.468	
189.600	5.933	
189.700	32.268	
189.800	-5.839	
189.900	18.862	
190.000	9.073	
190.100	7.198	
190.200	21.411	
190.300	29.770	
190.400	14.469	
190.500	12.877	
190.600	8.413	
190.700	13.520	
190.800	9.904	
190.900	1.996	
191.000	10.385	
191.100	12.372	
191.200	19.613	
191.300	-1.623	
191.400	27.247	
191.500	11.694	
191.600	3.626	
191.700	7.369	
191.800	15.663	
191.900	-2.832	
192.000	4.908	
192.100	21.731	
192.200	7.364	
192.300	9.860	
192.400	8.053	
192.500	7.198	
192.600	22.115	
192.700	17.059	
192.800	-4.194	
192.900	-10.442	
193.000	8.527	
193.100	27.482	
193.200	11.163	
193.300	8.773	
193.400	8.904	
193.500	9.302	
193.600	10.489	
193.700	15.740	
193.800	2.520	
193.900	25.299	
194.000	3.765	
194.100	3.777	
194.200	8.848	
194.300	1.874	
194.400	39.734	
194.500	7.303	
194.600	2.728	
194.700	12.528	
194.800	9.913	
194.900	-3.861	
195.000	24.263	
195.100	8.924	
195.200	10.629	
195.300	-6.954	
195.400	-3.952	
195.500	9.264	
195.600	10.974	
195.700	19.791	
195.800	-5.275	
195.900	15.382	
196.000	25.925	
196.100	7.671	
196.200	1.454	
196.300	6.601	
196.400	4.991	
196.500	2.086	
196.600	25.033	
196.700	0.579	
196.800	20.312	
196.900	14.225	
197.000	0.980	
197.100	7.420	
197.200	19.628	
197.300	19.491	
197.400	13.318	
197.500	20.751	
197.600	18.355	
197.700	9.218	
197.800	12.555	
197.900	15.256	
198.000	3.768	
198.100	-2.929	
198.200	22.901	
198.300	-9.110	
198.400	23.216	
198.500	24.172	
198.600	7.314	
198.700	-4.458	
198.800	14.942	
198.900	8.994	
199.000	5.896	
199.100	16.186	
199.200	6.123	
199.300	-0.450	
199.400	18.206	
199.500	-7.426	
199.600	6.460	
199.700	26.979	
199.800	3.318	
199.900	-4.498	
200.000	23.146	
200.100	12.264	
200.200	-0.248	
200.300	25.498	
200.400	-8.773	
200.500	1.529	
200.600	22.055	
200.700	7.116	
200.800	9.544	
200.900	7.738	
201.000	6.357	
201.100	28.041	
201.200	18.677	
201.300	6.126	
201.400	7.237	
201.500	17.108	
201.600	-0.597	
201.700	15.210	
201.800	16.252	
201.900	21.165	
202.000	10.818	
202.100	13.401	
202.200	5.300	
202.300	10.076	
202.400	14.844	
202.500	19.995	
202.600	6.658	
202.700	19.567	
202.800	1.603	
202.900	9.285	
203.000	3.810	
203.100	3.501	
203.200	15.045	
203.300	18.335	
203.400	7.556	
203.500	-20.906	
203.600	-4.768	
203.700	25.413	
203.800	27.679	
203.900	0.984	
204.000	-3.088	
204.100	46.434	
204.200	15.087	
204.300	24.764	
204.400	-10.114	
204.500	11.496	
204.600	14.778	
204.700	22.751	
204.800	11.902	
204.900	17.489	
205.000	-3.063	
205.100	-7.987	
205.200	37.449	
205.300	9.801	
205.400	27.422	
205.500	11.133	
205.600	6.978	
205.700	-3.902	
205.800	7.327	
205.900	16.176	
206.000	17.761	
206.100	13.280	
206.200	8.238	
206.300	15.022	
206.400	2.561	
206.500	6.269	
206.600	2.788	
206.700	10.636	
206.800	16.423	
206.900	16.787	
207.000	6.136	
207.100	14.608	
207.200	16.797	
207.300	14.530	
207.400	6.013	
207.500	-4.192	
207.600	13.376	
207.700	19.415	
207.800	28.268	
207.900	0.348	
208.000	5.551	
208.100	16.116	
208.200	12.760	
208.300	0.805	
208.400	16.187	
208.500	10.149	
208.600	18.794	
208.700	16.793	
208.800	-3.138	
208.900	5.071	
209.000	0.792	
209.100	24.293	
209.200	6.733	
209.300	9.990	
209.400	17.120	
209.500	24.258	
209.600	12.183	
209.700	12.102	
209.800	12.962	
209.900	3.342	
210.000	22.949	
210.100	15.861	
210.200	17.399	
210.300	19.762	
210.400	17.634	
210.500	14.833	
210.600	18.309	
210.700	16.795	
210.800	15.927	
210.900	0.786	
211.000	20.115	
211.100	10.534	
211.200	3.110	
211.300	-0.328	
211.400	6.186	
211.500	18.724	
211.600	0.066	
211.700	13.545	
211.800	8.596	
211.900	5.610	
212.000	15.287	
212.100	0.418	
212.200	19.981	
212.300	20.567	
212.400	16.070	
212.500	23.134	
212.600	22.323	
212.700	2.330	
212.800	9.337	
212.900	1.955	
213.000	8.252	
213.100	27.651	
213.200	-17.274	
213.300	6.608	
213.400	1.392	
213.500	28.189	
213.600	13.034	
213.700	20.851	
213.800	9.017	
213.900	6.577	
214.000	9.883	
214.100	18.426	
214.200	-12.552	
214.300	24.781	
214.400	16.639	
214.500	8.042	
214.600	-5.026	
214.700	9.511	
214.800	6.323	
214.900	6.471	
215.000	-6.822	
215.100	4.277	
215.200	2.172	
215.300	28.893	
215.400	28.015	
215.500	6.876	
215.600	7.583	
215.700	-0.876	
215.800	8.694	
215.900	14.158	
216.000	6.427	
216.100	4.892	
216.200	9.095	
216.300	5.190	
216.400	14.909	
216.500	27.431	
216.600	2.918	
216.700	1.936	
216.800	-1.991	
216.900	19.346	
217.000	-7.391	
217.100	32.679	
217.200	-2.591	
217.300	3.625	
217.400	1.591	
217.500	5.532	
217.600	14.668	
217.700	7.816	
217.800	22.843	
217.900	11.620	
218.000	-10.499	
218.100	37.122	
218.200	22.253	
218.300	21.684	
218.400	-0.349	
218.500	11.956	
218.600	-7.111	
218.700	18.235	
218.800	9.481	
218.900	16.247	
219.000	4.199	
219.100	2.900	
219.200	3.747	
219.300	11.871	
219.400	16.269	
219.500	15.215	
219.600	6.044	
219.700	11.686	
219.800	1.543	
219.900	-3.948	
220.000	7.746	
220.100	19.411	
220.200	11.407	
220.300	2.152	
220.400	-1.373	
220.500	-8.049	
220.600	19.443	
220.700	0.608	
220.800	-1.209	
220.900	10.758	
221.000	-5.107	
221.100	22.337	
221.200	8.261	
221.300	7.304	
221.400	9.182	
221.500	0.895	
221.600	2.771	
221.700	14.303	
221.800	0.154	
221.900	13.266	
222.000	27.352	
222.100	0.532	
222.200	23.440	
222.300	-5.693	
222.400	9.969	
222.500	-11.214	
222.600	8.718	
222.700	5.920	
222.800	19.184	
222.900	4.068	
223.000	-1.209	
223.100	5.197	
223.200	17.367	
223.300	-6.338	
223.400	-5.417	
223.500	10.638	
223.600	11.580	
223.700	1.679	
223.800	1.385	
223.900	11.188	
224.000	7.088	
224.100	15.915	
224.200	17.505	
224.300	-12.496	
224.400	8.046	
224.500	16.760	
224.600	9.629	
224.700	26.685	
224.800	7.444	
224.900	4.958	
225.000	18.345	
225.100	-0.966	
225.200	2.480	
225.300	2.028	
225.400	6.812	
225.500	9.720	
225.600	1.455	
225.700	9.105	
225.800	26.546	
225.900	10.489	
226.000	7.744	
226.100	5.241	
226.200	-0.474	
226.300	11.122	
226.400	16.084	
226.500	15.313	
226.600	26.527	
226.700	-16.025	
226.800	-1.883	
226.900	3.186	
227.000	5.850	
227.100	4.208	
227.200	8.498	
227.300	15.670	
227.400	-6.068	
227.500	-5.604	
227.600	27.945	
227.700	6.457	
227.800	12.538	
227.900	6.923	
228.000	-2.210	
228.100	1.296	
228.200	-2.192	
228.300	7.124	
228.400	13.919	
228.500	6.246	
228.600	13.146	
228.700	27.434	
228.800	12.033	
228.900	7.871	
229.000	0.128	
229.100	-4.857	
229.200	12.642	
229.300	14.382	
229.400	29.970	
229.500	10.945	
229.600	-9.306	
229.700	2.895	
229.800	13.223	
229.900	0.768	
230.000	15.344	
230.100	8.258	
230.200	6.004	
230.300	6.073	
230.400	-17.771	
230.500	4.667	
230.600	20.355	
230.700	1.572	
230.800	1.261	
230.900	21.352	
231.000	15.498	
231.100	6.961	
231.200	18.301	
231.300	-6.325	
231.400	21.454	
231.500	7.679	
231.600	11.867	
231.700	5.268	
231.800	6.759	
231.900	12.791	
232.000	2.677	
232.100	15.194	
232.200	6.799	
232.300	21.467	
232.400	12.199	
232.500	-11.624	
232.600	7.264	
232.700	12.554	
232.800	1.284	
232.900	-4.235	
233.000	7.833	
233.100	9.645	
233.200	-0.681	
233.300	-1.249	
233.400	-2.471	
233.500	17.651	
233.600	-1.193	
233.700	10.986	
233.800	-0.087	
233.900	12.154	
234.000	12.874	
234.100	33.151	
234.200	-12.663	
234.300	6.790	
234.400	10.340	
234.500	3.080	
234.600	8.471	
234.700	-5.753	
234.800	10.769	
234.900	15.694	
235.000	9.875	
235.100	1.474	
235.200	6.737	
235.300	5.819	
235.400	1.923	
235.500	8.132	
235.600	3.999	
235.700	11.014	
235.800	21.230	
235.900	2.689	
236.000	-1.102	
236.100	-0.582	
236.200	-9.828	
236.300	6.436	
236.400	25.716	
236.500	7.630	
236.600	6.426	
236.700	-10.434	
236.800	14.366	
236.900	9.438	
237.000	16.040	
237.100	4.314	
237.200	1.624	
237.300	9.628	
237.400	28.592	
237.500	4.759	
237.600	23.529	
237.700	6.544	
237.800	18.382	
237.900	7.023	
238.000	6.030	
238.100	11.911	
238.200	7.798	
238.300	-1.616	
238.400	3.082	
238.500	18.319	
238.600	16.732	
238.700	20.984	
238.800	12.120	
238.900	-21.585	
239.000	9.731	
239.100	2.399	
239.200	9.204	
239.300	15.541	
239.400	13.120	
239.500	7.801	
239.600	0.213	
239.700	8.373	
239.800	21.233	
239.900	7.797	
240.000	16.997	
240.100	4.611	
240.200	15.965	
240.300	10.451	
240.400	15.926	
240.500	8.649	
240.600	13.666	
240.700	-16.151	
240.800	4.600	
240.900	26.868	
241.000	14.725	
241.100	15.992	
241.200	-2.669	
241.300	-1.431	
241.400	5.444	
241.500	-0.778	
241.600	-1.271	
241.700	17.916	
241.800	-18.532	
241.900	-9.371	
242.000	43.743	
242.100	21.810	
242.200	9.952	
242.300	11.845	
242.400	7.318	
242.500	12.201	
242.600	1.836	
242.700	9.861	
242.800	10.017	
242.900	6.136	
243.000	5.490	
243.100	-1.763	
243.200	7.118	
243.300	12.276	
243.400	12.332	
243.500	12.946	
243.600	3.719	
243.700	16.009	
243.800	10.357	
243.900	0.269	
244.000	15.391	
244.100	3.174	
244.200	-3.781	
244.300	-7.364	
244.400	15.731	
244.500	-0.168	
244.600	11.884	
244.700	2.265	
244.800	-8.196	
244.900	-0.258	
245.000	5.066	
245.100	-6.856	
245.200	-7.383	
245.300	19.596	
245.400	-2.045	
245.500	-4.802	
245.600	27.760	
245.700	16.510	
245.800	8.455	
245.900	-17.507	
246.000	-22.882	
246.100	12.945	
246.200	3.794	
246.300	18.675	
246.400	13.275	
246.500	18.706	
246.600	5.678	
246.700	-4.774	
246.800	5.896	
246.900	-9.357	
247.000	12.600	
247.100	7.829	
247.200	13.235	
247.300	0.216	
247.400	0.702	
247.500	-2.724	
247.600	-6.277	
247.700	11.943	
247.800	17.246	
247.900	12.930	
248.000	16.010	
248.100	14.561	
248.200	2.113	
248.300	0.046	
248.400	-1.474	
248.500	-8.399	
248.600	16.426	
248.700	2.804	
248.800	10.829	
248.900	4.977	
249.000	-4.948	
249.100	-12.545	
249.200	-3.073	
249.300	6.333	
249.400	2.824	
249.500	0.597	
249.600	0.157	
249.700	3.538	
249.800	-1.718	
249.900	4.190	
250.000	0.585	
250.100	-7.488	
250.200	23.288	
250.300	2.167	
250.400	-1.006	
250.500	3.823	
250.600	-2.592	
250.700	-13.381	
250.800	6.671	
250.900	8.094	
251.000	-10.365	
251.100	9.879	
251.200	0.222	
251.300	19.946	
251.400	18.497	
251.500	14.150	
251.600	5.882	
251.700	-0.009	
251.800	1.046	
251.900	-2.763	
252.000	2.978	
252.100	14.334	
252.200	9.988	
252.300	3.395	
252.400	-7.555	
252.500	8.494	
252.600	-1.707	
252.700	14.174	
252.800	1.503	
252.900	-2.851	
253.000	-11.970	
253.100	16.804	
253.200	13.109	
253.300	17.116	
253.400	-14.845	
253.500	-17.684	
253.600	-1.454	
253.700	18.903	
253.800	13.770	
253.900	11.344	
254.000	0.632	
254.100	-1.225	
254.200	11.272	
254.300	8.279	
254.400	2.723	
254.500	20.457	
254.600	-15.522	
254.700	-7.900	
254.800	4.605	
254.900	27.486	
255.000	26.489	
255.100	9.980	
255.200	-4.219	
255.300	-6.544	
255.400	11.174	
255.500	1.975	
255.600	26.019	
255.700	27.258	
255.800	14.439	
255.900	-3.675	
256.000	-1.601	
256.100	8.128	
256.200	4.586	
256.300	12.649	
256.400	5.200	
256.500	5.454	
256.600	1.885	
256.700	-2.218	
256.800	12.525	
256.900	-14.153	
257.000	-8.882	
257.100	1.298	
257.200	15.615	
257.300	1.518	
257.400	13.794	
257.500	21.189	
257.600	-2.269	
257.700	-0.453	
257.800	8.099	
257.900	19.506	
258.000	2.668	
258.100	-9.120	
258.200	-5.718	
258.300	6.163	
258.400	17.410	
258.500	15.900	
258.600	-3.711	
258.700	3.490	
258.800	11.105	
258.900	-28.728	
259.000	-1.323	
259.100	7.510	
259.200	10.068	
259.300	-3.118	
259.400	-0.830	
259.500	9.035	
259.600	19.234	
259.700	6.742	
259.800	-1.719	
259.900	-13.648	
260.000	15.471	
260.100	0.188	
260.200	39.839	
260.300	10.000	
260.400	11.353	
260.500	-8.675	
260.600	4.640	
260.700	13.941	
260.800	-1.591	
260.900	17.723	
261.000	-1.621	
261.100	-2.254	
261.200	10.585	
261.300	12.521	
261.400	7.511	
261.500	1.868	
261.600	-4.470	
261.700	-8.557	
261.800	-3.302	
261.900	11.692	
262.000	26.723	
262.100	-8.303	
262.200	14.523	
262.300	-6.259	
262.400	2.974	
262.500	5.462	
262.600	7.655	
262.700	6.663	
262.800	-0.580	
262.900	8.995	
263.000	9.996	
263.100	2.113	
263.200	14.929	
263.300	4.834	
263.400	4.241	
263.500	0.197	
263.600	-3.486	
263.700	3.572	
263.800	26.218	
263.900	-14.640	
264.000	2.839	
264.100	-5.145	
264.200	19.666	
264.300	24.855	
264.400	3.801	
264.500	-3.615	
264.600	-10.625	
264.700	23.634	
264.800	2.379	
264.900	-1.397	
265.000	1.848	
265.100	-17.212	
265.200	1.429	
265.300	13.238	
265.400	-1.300	
265.500	0.634	
265.600	-15.194	
265.700	0.388	
265.800	16.713	
265.900	0.498	
266.000	32.527	
266.100	1.354	
266.200	4.710	
266.300	-10.009	
266.400	-7.012	
266.500	-0.866	
266.600	15.668	
266.700	4.967	
266.800	-2.726	
266.900	2.765	
267.000	-11.523	
267.100	4.409	
267.200	-1.561	
267.300	9.879	
267.400	18.032	
267.500	8.614	
267.600	2.490	
267.700	8.801	
267.800	12.308	
267.900	-1.220	
268.000	11.756	
268.100	4.453	
268.200	5.348	
268.300	6.946	
268.400	-11.298	
268.500	13.680	
268.600	2.686	
268.700	9.075	
268.800	9.233	
268.900	-4.220	
269.000	0.940	
269.100	-0.237	
269.200	9.630	
269.300	-1.336	
269.400	-2.102	
269.500	16.512	
269.600	12.465	
269.700	1.298	
269.800	-26.733	
269.900	-3.901	
270.000	6.670	
270.100	5.793	
270.200	17.335	
270.300	3.123	
270.400	-2.537	
270.500	4.356	
270.600	15.204	
270.700	-10.527	
270.800	9.586	
270.900	9.909	
271.000	-2.913	
271.100	3.683	
271.200	32.863	
271.300	5.535	
271.400	-6.484	
271.500	2.854	
271.600	-7.328	
271.700	7.628	
271.800	9.487	
271.900	17.418	
272.000	6.609	
272.100	-2.388	
272.200	-5.537	
272.300	19.307	
272.400	-2.362	
272.500	25.503	
272.600	16.938	
272.700	-4.483	
272.800	-1.090	
272.900	-8.856	
273.000	9.917	
273.100	-5.711	
273.200	-3.506	
273.300	-0.662	
273.400	8.700	
273.500	2.360	
273.600	7.990	
273.700	8.172	
273.800	5.159	
273.900	1.158	
274.000	3.330	
274.100	4.329	
274.200	6.622	
274.300	-8.772	
274.400	2.042	
274.500	-7.475	
274.600	0.937	
274.700	3.431	
274.800	13.274	
274.900	-3.824	
275.000	-6.261	
275.100	-6.742	
275.200	-7.226	
275.300	-9.807	
275.400	4.991	
275.500	10.764	
275.600	16.392	
275.700	-5.776	
275.800	-24.666	
275.900	9.529	
276.000	14.378	
276.100	11.232	
276.200	6.942	
276.300	-5.713	
276.400	1.831	
276.500	5.165	
276.600	9.837	
276.700	12.327	
276.800	-10.157	
276.900	9.383	
277.000	-3.963	
277.100	14.368	
277.200	-0.745	
277.300	-5.837	
277.400	1.031	
277.500	-7.009	
277.600	-5.466	
277.700	-9.520	
277.800	21.496	
277.900	-10.386	
278.000	-0.651	
278.100	-1.843	
278.200	-19.643	
278.300	10.226	
278.400	14.183	
278.500	8.640	
278.600	-6.139	
278.700	-5.176	
278.800	27.999	
278.900	-5.349	
279.000	13.100	
279.100	-1.992	
279.200	-12.576	
279.300	-11.734	
279.400	13.770	
279.500	-7.452	
279.600	-8.734	
279.700	11.189	
279.800	2.353	
279.900	-1.612	
280.000	7.342	
280.100	-1.014	
280.200	-10.866	
280.300	-4.396	
280.400	10.758	
280.500	9.096	
280.600	-3.020	
280.700	2.418	
280.800	-13.647	
280.900	-11.835	
281.000	-0.420	
281.100	-2.603	
281.200	24.213	
281.300	-4.557	
281.400	10.102	
281.500	-1.839	
281.600	-12.528	
281.700	-2.565	
281.800	14.245	
281.900	13.709	
282.000	-1.112	
282.100	-25.243	
282.200	4.142	
282.300	11.780	
282.400	10.830	
282.500	13.179	
282.600	12.919	
282.700	-29.870	
282.800	-12.628	
282.900	-2.886	
283.000	12.309	
283.100	6.021	
283.200	7.231	
283.300	1.006	
283.400	-12.422	
283.500	8.073	
283.600	13.073	
283.700	-8.183	
283.800	3.122	
283.900	5.923	
284.000	-1.285	
284.100	22.261	
284.200	7.369	
284.300	-2.764	
284.400	-3.756	
284.500	12.689	
284.600	3.106	
284.700	8.458	
284.800	5.493	
284.900	5.215	
285.000	6.991	
285.100	28.175	
285.200	6.830	
285.300	0.102	
285.400	13.104	
285.500	8.664	
285.600	-5.529	
285.700	6.211	
285.800	15.523	
285.900	1.308	
286.000	-4.227	
286.100	5.574	
286.200	5.445	
286.300	7.734	
286.400	22.344	
286.500	5.265	
286.600	-17.780	
286.700	4.502	
286.800	0.146	
286.900	15.289	
287.000	8.069	
287.100	19.173	
287.200	11.110	
287.300	-1.972	
287.400	-10.393	
287.500	12.369	
287.600	-3.516	
287.700	24.324	
287.800	-6.160	
287.900	-13.141	
288.000	20.834	
288.100	-2.567	
288.200	3.862	
288.300	14.936	
288.400	18.148	
288.500	-0.090	
288.600	-19.830	
288.700	-5.994	
288.800	0.044	
288.900	8.206	
289.000	10.318	
289.100	5.270	
289.200	5.905	
289.300	-1.220	
289.400	6.001	
289.500	18.545	
289.600	11.812	
289.700	8.988	
289.800	0.939	
289.900	6.632	
290.000	6.068	
290.100	7.991	
290.200	-4.132	
290.300	-11.898	
290.400	15.019	
290.500	2.228	
290.600	29.895	
290.700	25.346	
290.800	2.595	
290.900	-3.794	
291.000	12.848	
291.100	-8.116	
291.200	16.090	
291.300	26.417	
291.400	10.539	
291.500	6.318	
291.600	-5.437	
291.700	1.104	
291.800	6.280	
291.900	5.263	
292.000	6.583	
292.100	-0.970	
292.200	7.570	
292.300	11.753	
292.400	11.925	
292.500	17.173	
292.600	-0.037	
292.700	5.286	
292.800	0.801	
292.900	9.312	
293.000	7.904	
293.100	-0.235	
293.200	0.753	
293.300	6.417	
293.400	18.256	
293.500	12.147	
293.600	14.034	
293.700	-9.169	
293.800	-15.676	
293.900	-11.929	
294.000	-2.724	
294.100	16.904	
294.200	10.085	
294.300	-2.869	
294.400	-6.358	
294.500	-4.849	
294.600	0.152	
294.700	-1.892	
294.800	-3.078	
294.900	-5.028	
295.000	0.502	
295.100	20.348	
295.200	5.246	
295.300	11.123	
295.400	8.541	
295.500	8.813	
295.600	-17.663	
295.700	3.508	
295.800	11.655	
295.900	15.421	
296.000	-1.679	
296.100	7.984	
296.200	-1.179	
296.300	-2.396	
296.400	5.492	
296.500	2.977	
296.600	-14.421	
296.700	-9.626	
296.800	2.526	
296.900	14.398	
297.000	8.179	
297.100	13.556	
297.200	0.048	
297.300	-7.421	
297.400	8.188	
297.500	5.374	
297.600	12.889	
297.700	5.070	
297.800	11.899	
297.900	-1.888	
298.000	8.142	
298.100	4.814	
298.200	8.553	
298.300	5.872	
298.400	-5.604	
298.500	14.994	
298.600	11.830	
298.700	6.438	
298.800	3.551	
298.900	7.457	
299.000	2.946	
299.100	2.761	
299.200	12.310	
299.300	1.747	
299.400	-5.083	
299.500	4.381	
299.600	7.249	
299.700	-7.629	
299.800	12.896	
299.900	23.284	
300.000	3.703	
300.100	2.775	
300.200	-3.478	
300.300	3.876	
300.400	11.521	
300.500	8.862	
300.600	-9.718	
300.700	-1.346	
300.800	1.371	
300.900	-7.254	
301.000	-13.281	
301.100	13.642	
301.200	21.071	
301.300	4.587	
301.400	-11.512	
301.500	13.317	
301.600	-1.685	
301.700	3.552	
301.800	13.946	
301.900	-2.052	
302.000	10.423	
302.100	5.213	
302.200	-13.259	
302.300	8.935	
302.400	13.276	
302.500	1.158	
302.600	-4.240	
302.700	4.039	
302.800	3.278	
302.900	8.239	
303.000	6.588	
303.100	-3.934	
303.200	-6.012	
303.300	2.494	
303.400	12.266	
303.500	19.799	
303.600	-4.254	
303.700	-15.541	
303.800	1.716	
303.900	4.411	
304.000	1.885	
304.100	11.606	
304.200	9.715	
304.300	1.263	
304.400	-4.801	
304.500	18.553	
304.600	13.595	
304.700	0.311	
304.800	11.230	
304.900	6.304	
305.000	-0.276	
305.100	-6.284	
305.200	7.351	
305.300	0.617	
305.400	-7.703	
305.500	-7.738	
305.600	10.527	
305.700	8.132	
305.800	13.260	
305.900	-7.530	
306.000	-7.328	
306.100	14.155	
306.200	16.585	
306.300	3.190	
306.400	4.753	
306.500	2.060	
306.600	9.561	
306.700	-7.317	
306.800	-7.074	
306.900	25.173	
307.000	1.121	
307.100	-11.828	
307.200	6.438	
307.300	-3.407	
307.400	6.223	
307.500	2.716	
307.600	1.581	
307.700	-2.442	
307.800	-1.633	
307.900	-18.813	
308.000	13.590	
308.100	17.383	
308.200	7.541	
308.300	-17.709	
308.400	4.873	
308.500	9.314	
308.600	-2.963	
308.700	9.798	
308.800	-3.290	
308.900	10.400	
309.000	-2.438	
309.100	-9.225	
309.200	18.321	
309.300	16.596	
309.400	4.598	
309.500	13.055	
309.600	-4.167	
309.700	7.742	
309.800	12.175	
309.900	1.320	
310.000	7.574	
310.100	-7.286	
310.200	10.044	
310.300	-1.039	
310.400	21.484	
310.500	-8.593	
310.600	-9.045	
310.700	3.437	
310.800	10.725	
310.900	6.031	
311.000	7.813	
311.100	23.661	
311.200	1.415	
311.300	-26.039	
311.400	5.449	
311.500	9.146	
311.600	25.739	
311.700	7.703	
311.800	-8.326	
311.900	-13.231	
312.000	10.769	
312.100	8.771	
312.200	18.826	
312.300	-3.096	
312.400	29.064	
312.500	-3.513	
312.600	0.327	
312.700	15.170	
312.800	-6.502	
312.900	4.776	
313.000	12.171	
313.100	-11.251	
313.200	-9.488	
313.300	-2.082	
313.400	-1.769	
313.500	17.446	
313.600	22.222	
313.700	0.163	
313.800	16.652	
313.900	19.547	
314.000	11.953	
314.100	3.382	
314.200	-8.013	
314.300	5.693	
314.400	-1.230	
314.500	13.635	
314.600	1.962	
314.700	1.224	
314.800	-6.107	
314.900	-16.282	
315.000	10.319	
315.100	23.417	
315.200	-0.730	
315.300	19.533	
315.400	6.892	
315.500	3.499	
315.600	-1.907	
315.700	15.565	
315.800	15.029	
315.900	10.435	
316.000	20.154	
316.100	-4.591	
316.200	4.399	
316.300	8.595	
316.400	10.033	
316.500	6.145	
316.600	9.836	
316.700	-5.491	
316.800	8.794	
316.900	14.799	
317.000	8.623	
317.100	12.022	
317.200	-2.128	
317.300	10.008	
317.400	-1.509	
317.500	-0.595	
317.600	1.480	
317.700	8.168	
317.800	-7.202	
317.900	-0.471	
318.000	25.914	
318.100	15.382	
318.200	6.697	
318.300	10.231	
318.400	-11.373	
318.500	8.121	
318.600	13.044	
318.700	1.161	
318.800	16.630	
318.900	-3.425	
319.000	4.517	
319.100	20.927	
319.200	15.513	
319.300	17.320	
319.400	3.645	
319.500	3.167	
319.600	-4.687	
319.700	12.283	
319.800	6.343	
319.900	-4.712	
320.000	14.493	
320.100	-10.340	
320.200	2.530	
320.300	6.888	
320.400	15.627	
320.500	7.717	
320.600	-4.834	
320.700	4.797	
320.800	-1.675	
320.900	2.832	
321.000	-12.261	
321.100	1.093	
321.200	9.487	
321.300	-1.762	
321.400	-3.489	
321.500	16.090	
321.600	18.572	
321.700	-5.643	
321.800	10.927	
321.900	9.787	
322.000	-10.091	
322.100	2.207	
322.200	10.231	
322.300	25.551	
322.400	-11.150	
322.500	3.237	
322.600	-0.279	
322.700	3.549	
322.800	18.877	
322.900	1.077	
323.000	-7.717	
323.100	-4.758	
323.200	9.914	
323.300	13.796	
323.400	9.857	
323.500	1.552	
323.600	12.628	
323.700	0.024	
323.800	13.168	
323.900	8.242	
324.000	-1.214	
324.100	-12.113	
324.200	8.537	
324.300	-10.145	
324.400	17.812	
324.500	17.977	
324.600	11.887	
324.700	14.648	
324.800	6.346	
324.900	1.642	
325.000	13.797	
325.100	20.595	
325.200	0.358	
325.300	-7.064	
325.400	0.468	
325.500	18.446	
325.600	-1.138	
325.700	14.705	
325.800	17.208	
325.900	-1.311	
326.000	7.496	
326.100	-9.370	
326.200	19.676	
326.300	-4.929	
326.400	18.222	
326.500	4.182	
326.600	-9.990	
326.700	16.034	
326.800	18.656	
326.900	17.301	
327.000	-2.603	
327.100	-20.251	
327.200	12.296	
327.300	18.708	
327.400	10.703	
327.500	16.539	
327.600	0.552	
327.700	4.450	
327.800	10.020	
327.900	14.394	
328.000	4.868	
328.100	13.780	
328.200	11.028	
328.300	8.653	
328.400	6.554	
328.500	-12.337	
328.600	19.401	
328.700	3.015	
328.800	23.694	
328.900	4.300	
329.000	19.002	
329.100	27.416	
329.200	-4.113	
329.300	2.240	
329.400	3.777	
329.500	-4.709	
329.600	17.717	
329.700	20.377	
329.800	31.272	
329.900	5.300	
330.000	-3.088	
330.100	4.475	
330.200	7.730	
330.300	-2.304	
330.400	10.235	
330.500	3.944	
330.600	35.241	
330.700	13.000	
330.800	7.697	
330.900	29.660	
331.000	10.431	
331.100	-2.262	
331.200	12.884	
331.300	21.747	
331.400	22.801	
331.500	11.418	
331.600	4.998	
331.700	-3.636	
331.800	4.897	
331.900	21.154	
332.000	17.702	
332.100	6.510	
332.200	18.881	
332.300	3.093	
332.400	27.842	
332.500	-0.471	
332.600	21.796	
332.700	28.995	
332.800	-17.744	
332.900	22.262	
333.000	18.547	
333.100	-6.265	
333.200	19.434	
333.300	26.149	
333.400	0.559	
333.500	-6.246	
333.600	7.632	
333.700	19.725	
333.800	21.779	
333.900	24.050	
334.000	14.997	
334.100	25.053	
334.200	20.691	
334.300	19.521	
334.400	16.651	
334.500	6.816	
334.600	17.808	
334.700	3.705	
334.800	3.229	
334.900	22.656	
335.000	17.771	
335.100	4.580	
335.200	15.760	
335.300	14.769	
335.400	15.910	
335.500	12.318	
335.600	22.572	
335.700	4.598	
335.800	-2.608	
335.900	21.116	
336.000	12.257	
336.100	24.656	
336.200	13.303	
336.300	19.610	
336.400	12.408	
336.500	2.523	
336.600	-3.760	
336.700	29.551	
336.800	26.168	
336.900	3.733	
337.000	13.828	
337.100	20.767	
337.200	23.485	
337.300	8.042	
337.400	13.784	
337.500	8.208	
337.600	19.664	
337.700	-3.723	
337.800	24.746	
337.900	12.969	
338.000	0.712	
338.100	7.733	
338.200	17.504	
338.300	21.203	
338.400	11.298	
338.500	0.742	
338.600	24.269	
338.700	16.516	
338.800	7.335	
338.900	25.652	
339.000	16.473	
339.100	13.297	
339.200	13.732	
339.300	7.399	
339.400	-6.523	
339.500	25.629	
339.600	27.326	
339.700	16.190	
339.800	17.261	
339.900	11.746	
340.000	14.445	
340.100	25.736	
340.200	7.203	
340.300	-0.784	
340.400	17.182	
340.500	6.207	
340.600	7.468	
340.700	23.038	
340.800	6.956	
340.900	5.294	
341.000	-2.923	
341.100	27.668	
341.200	3.518	
341.300	-3.180	
341.400	36.536	
341.500	9.257	
341.600	5.837	
341.700	12.686	
341.800	1.960	
341.900	8.138	
342.000	31.361	
342.100	-1.788	
342.200	5.618	
342.300	17.182	
342.400	6.726	
342.500	23.816	
342.600	9.486	
342.700	21.666	
342.800	8.496	
342.900	6.624	
343.000	12.244	
343.100	2.907	
343.200	22.239	
343.300	-14.707	
343.400	14.161	
343.500	22.636	
343.600	13.223	
343.700	18.346	
343.800	18.595	
343.900	-4.504	
344.000	17.532	
344.100	7.622	
344.200	23.433	
344.300	15.315	
344.400	15.263	
344.500	2.939	
344.600	13.029	
344.700	11.105	
344.800	8.560	
344.900	22.205	
345.000	19.809	
345.100	-2.289	
345.200	8.096	
345.300	7.953	
345.400	5.431	
345.500	24.952	
345.600	4.615	
345.700	-14.545	
345.800	13.460	
345.900	0.652	
346.000	3.122	
346.100	14.775	
346.200	17.722	
346.300	27.721	
346.400	22.941	
346.500	9.037	
346.600	12.890	
346.700	19.207	
346.800	10.580	
346.900	12.143	
347.000	-4.081	
347.100	23.268	
347.200	14.376	
347.300	16.384	
347.400	22.248	
347.500	16.886	
347.600	6.936	
347.700	16.689	
347.800	19.601	
347.900	8.632	
348.000	-2.008	
348.100	-3.541	
348.200	-0.899	
348.300	15.690	
348.400	26.149	
348.500	28.344	
348.600	-6.898	
348.700	-7.366	
348.800	30.019	
348.900	12.223	
349.000	12.865	
349.100	15.908	
349.200	14.390	
349.300	13.174	
349.400	2.453	
349.500	30.574	
349.600	23.167	
349.700	-2.029	
349.800	-1.384	
349.900	13.118	
350.000	-11.478	
350.100	21.869	
350.200	22.623	
350.300	15.436	
350.400	12.243	
350.500	4.055	
350.600	2.621	
350.700	34.014	
350.800	24.847	
350.900	16.158	
351.000	9.398	
351.100	11.076	
351.200	7.951	
351.300	27.184	
351.400	22.518	
351.500	-0.176	
351.600	12.277	
351.700	18.016	
351.800	7.870	
351.900	14.974	
352.000	19.157	
352.100	8.499	
352.200	33.527	
352.300	18.157	
352.400	18.439	
352.500	16.989	
352.600	0.961	
352.700	5.543	
352.800	6.731	
352.900	1.824	
353.000	33.145	
353.100	0.935	
353.200	6.687	
353.300	4.576	
353.400	4.911	
353.500	21.037	
353.600	38.165	
353.700	16.038	
353.800	12.038	
353.900	7.211	
354.000	3.039	
354.100	-1.310	
354.200	12.395	
354.300	23.267	
354.400	15.341	
354.500	-3.600	
354.600	13.966	
354.700	9.247	
354.800	13.003	
354.900	17.962	
355.000	9.376	
355.100	2.294	
355.200	14.558	
355.300	9.618	
355.400	7.840	
355.500	15.521	
355.600	28.628	
355.700	12.884	
355.800	21.198	
355.900	9.207	
356.000	7.751	
356.100	36.211	
356.200	3.196	
356.300	10.427	
356.400	12.301	
356.500	20.692	
356.600	-12.154	
356.700	17.260	
356.800	8.512	
356.900	24.146	
357.000	18.562	
357.100	9.339	
357.200	19.191	
357.300	22.244	
357.400	-6.748	
357.500	14.588	
357.600	25.695	
357.700	16.786	
357.800	5.546	
357.900	17.758	
358.000	6.605	
358.100	10.486	
358.200	12.223	
358.300	35.566	
358.400	17.725	
358.500	6.470	
358.600	25.347	
358.700	11.362	
358.800	12.973	
358.900	23.793	
359.000	17.942	
359.100	14.123	
359.200	16.182	
359.300	13.943	
359.400	22.911	
359.500	29.210	
359.600	14.922	
359.700	14.131	
359.800	15.210	
359.900	20.227	
360.000	12.586	
360.100	12.971	
360.200	20.605	
360.300	3.555	
360.400	10.049	
360.500	9.707	
360.600	16.199	
360.700	14.873	
360.800	11.743	
360.900	10.074	
361.000	8.197	
361.100	17.397	
361.200	26.715	
361.300	13.018	
361.400	21.795	
361.500	18.729	
361.600	7.191	
361.700	33.119	
361.800	12.159	
361.900	11.117	
362.000	17.039	
362.100	5.404	
362.200	-2.744	
362.300	8.769	
362.400	22.907	
362.500	15.003	
362.600	15.337	
362.700	27.126	
362.800	1.331	
362.900	16.424	
363.000	19.604	
363.100	12.952	
363.200	15.408	
363.300	0.902	
363.400	32.329	
363.500	18.510	
363.600	19.002	
363.700	25.624	
363.800	5.271	
363.900	18.939	
364.000	17.346	
364.100	22.629	
364.200	18.240	
364.300	7.802	
364.400	0.331	
364.500	9.745	
364.600	6.282	
364.700	20.992	
364.800	15.272	
364.900	17.446	
365.000	24.513	
365.100	7.895	
365.200	-0.317	
365.300	7.643	
365.400	25.886	
365.500	9.619	
365.600	14.653	
365.700	23.873	
365.800	22.913	
365.900	-1.427	
366.000	23.246	
366.100	20.752	
366.200	6.658	
366.300	15.672	
366.400	10.047	
366.500	17.770	
366.600	2.966	
366.700	10.303	
366.800	-0.018	
366.900	7.213	
367.000	13.151	
367.100	16.521	
367.200	21.629	
367.300	5.399	
367.400	11.597	
367.500	22.352	
367.600	16.060	
367.700	18.383	
367.800	30.765	
367.900	-6.065	
368.000	12.638	
368.100	2.087	
368.200	10.536	
368.300	42.849	
368.400	21.821	
368.500	13.443	
368.600	15.903	
368.700	12.418	
368.800	10.707	
368.900	9.376	
369.000	17.242	
369.100	0.212	
369.200	6.779	
369.300	37.732	
369.400	22.083	
369.500	-1.529	
369.600	25.567	
369.700	2.993	
369.800	0.509	
369.900	22.510	
370.000	10.966	
370.100	17.936	
370.200	0.926	
370.300	17.564	
370.400	13.265	
370.500	18.686	
370.600	36.245	
370.700	12.132	
370.800	9.650	
370.900	9.249	
371.000	35.985	
371.100	12.477	
371.200	20.091	
371.300	14.398	
371.400	-3.647	
371.500	11.035	
371.600	7.398	
371.700	0.955	
371.800	21.234	
371.900	14.620	
372.000	-0.480	
372.100	-2.158	
372.200	3.229	
372.300	18.583	
372.400	27.554	
372.500	15.707	
372.600	11.781	
372.700	18.701	
372.800	-6.174	
372.900	22.550	
373.000	-2.771	
373.100	32.001	
373.200	-2.212	
373.300	7.804	
373.400	17.768	
373.500	11.996	
373.600	-3.547	
373.700	19.103	
373.800	17.088	
373.900	23.382	
374.000	20.518	
374.100	10.114	
374.200	21.613	
374.300	-6.018	
374.400	-7.967	
374.500	2.599	
374.600	20.018	
374.700	4.308	
374.800	-11.333	
374.900	10.545	
375.000	-1.302	
375.100	-7.550	
375.200	17.064	
375.300	28.585	
375.400	5.287	
375.500	17.033	
375.600	0.976	
375.700	15.768	
375.800	14.457	
375.900	0.651	
376.000	1.581	
376.100	12.141	
376.200	18.036	
376.300	-1.013	
376.400	13.987	
376.500	16.057	
376.600	3.665	
376.700	6.781	
376.800	-8.761	
376.900	11.908	
377.000	11.540	
377.100	-6.736	
377.200	4.563	
377.300	17.951	
377.400	8.768	
377.500	2.893	
377.600	26.808	
377.700	29.893	
377.800	-9.778	
377.900	-0.564	
378.000	11.491	
378.100	2.929	
378.200	2.764	
378.300	13.955	
378.400	-7.651	
378.500	16.980	
378.600	6.369	
378.700	20.526	
378.800	6.417	
378.900	13.146	
379.000	25.937	
379.100	18.025	
379.200	-3.217	
379.300	5.835	
379.400	15.130	
379.500	-2.893	
379.600	9.613	
379.700	10.602	
379.800	22.711	
379.900	9.060	
380.000	28.514	
380.100	2.396	
380.200	17.640	
380.300	-6.421	
380.400	8.429	
380.500	24.768	
380.600	18.706	
380.700	1.691	
380.800	25.486	
380.900	10.996	
381.000	19.415	
381.100	19.901	
381.200	22.592	
381.300	7.643	
381.400	1.898	
381.500	-5.041	
381.600	19.897	
381.700	48.784	
381.800	20.126	
381.900	-7.186	
382.000	14.123	
382.100	24.176	
382.200	9.674	
382.300	18.558	
382.400	25.790	
382.500	9.030	
382.600	5.076	
382.700	14.493	
382.800	4.658	
382.900	5.346	
383.000	22.468	
383.100	22.564	
383.200	0.868	
383.300	-1.508	
383.400	20.501	
383.500	29.948	
383.600	-1.346	
383.700	17.233	
383.800	17.578	
383.900	11.866	
384.000	20.202	
384.100	11.403	
384.200	17.874	
384.300	22.188	
384.400	16.643	
384.500	3.968	
384.600	15.257	
384.700	16.035	
384.800	6.346	
384.900	23.019	
385.000	11.990	
385.100	17.174	
385.200	25.551	
385.300	23.976	
385.400	7.856	
385.500	7.300	
385.600	20.980	
385.700	29.372	
385.800	14.209	
385.900	15.319	
386.000	3.733	
386.100	1.370	
386.200	8.660	
386.300	22.957	
386.400	18.313	
386.500	5.136	
386.600	30.053	
386.700	25.437	
386.800	19.237	
386.900	6.779	
387.000	11.479	
387.100	34.266	
387.200	-18.400	
387.300	10.698	
387.400	35.640	
387.500	34.186	
387.600	4.491	
387.700	10.739	
387.800	5.325	
387.900	13.656	
388.000	24.003	
388.100	35.872	
388.200	0.584	
388.300	11.787	
388.400	16.349	
388.500	5.837	
388.600	34.581	
388.700	10.439	
388.800	16.579	
388.900	11.995	
389.000	3.874	
389.100	4.959	
389.200	32.628	
389.300	21.798	
389.400	27.056	
389.500	29.223	
389.600	-5.749	
389.700	6.582	
389.800	34.309	
389.900	26.560	
390.000	4.936	
390.100	14.591	
390.200	6.959	
390.300	26.911	
390.400	15.756	
390.500	11.976	
390.600	1.956	
390.700	10.729	
390.800	12.317	
390.900	11.060	
391.000	7.613	
391.100	16.214	
391.200	15.403	
391.300	22.727	
391.400	12.189	
391.500	5.176	
391.600	9.017	
391.700	12.379	
391.800	13.442	
391.900	8.744	
392.000	7.856	
392.100	31.797	
392.200	29.964	
392.300	15.781	
392.400	6.568	
392.500	-8.747	
392.600	23.188	
392.700	8.912	
392.800	29.102	
392.900	11.544	
393.000	-3.055	
393.100	-9.668	
393.200	33.361	
393.300	37.713	
393.400	8.843	
393.500	3.500	
393.600	3.742	
393.700	15.304	
393.800	17.781	
393.900	4.116	
394.000	18.028	
394.100	8.088	
394.200	0.972	
394.300	4.824	
394.400	3.516	
394.500	18.478	
394.600	31.890	
394.700	11.596	
394.800	-4.177	
394.900	4.843	
395.000	35.231	
395.100	2.742	
395.200	18.727	
395.300	-4.330	
395.400	3.204	
395.500	-12.160	
395.600	26.244	
395.700	15.271	
395.800	8.842	
395.900	-9.927	
396.000	19.413	
396.100	4.608	
396.200	13.629	
396.300	21.091	
396.400	2.112	
396.500	17.093	
396.600	-9.382	
396.700	22.123	
396.800	13.887	
396.900	-0.029	
397.000	16.130	
397.100	-8.063	
397.200	25.070	
397.300	2.045	
397.400	19.753	
397.500	19.012	
397.600	26.399	
397.700	-1.240	
397.800	4.186	
397.900	15.602	
398.000	13.568	
398.100	24.242	
398.200	5.555	
398.300	11.468	
398.400	2.246	
398.500	6.775	
398.600	20.353	
398.700	16.973	
398.800	6.423	
398.900	3.330	
399.000	20.958	
399.100	22.367	
399.200	19.088	
399.300	-4.615	
399.400	18.477	
399.500	9.862	
399.600	17.151	
399.700	12.601	
399.800	13.622	
399.900	6.868	
400.000	-8.344	
400.100	4.522	
400.200	4.148	
400.300	9.441	
400.400	26.671	
400.500	22.841	
400.600	5.371	
400.700	-6.678	
400.800	19.992	
400.900	36.856	
401.000	18.159	
401.100	-6.335	
401.200	12.262	
401.300	1.259	
401.400	6.386	
401.500	38.152	
401.600	-7.907	
401.700	17.128	
401.800	35.057	
401.900	-4.105	
402.000	-4.167	
402.100	17.190	
402.200	11.887	
402.300	2.587	
402.400	7.082	
402.500	21.262	
402.600	11.737	
402.700	35.436	
402.800	-11.373	
402.900	8.754	
403.000	14.768	
403.100	3.290	
403.200	16.226	
403.300	16.778	
403.400	5.935	
403.500	35.109	
403.600	3.039	
403.700	6.873	
403.800	9.534	
403.900	16.203	
404.000	11.177	
404.100	-9.181	
404.200	10.323	
404.300	9.262	
404.400	18.336	
404.500	13.373	
404.600	-4.611	
404.700	18.202	
404.800	9.651	
404.900	18.974	
405.000	18.662	
405.100	-2.297	
405.200	-0.782	
405.300	15.667	
405.400	-3.500	
405.500	15.506	
405.600	2.906	
405.700	9.063	
405.800	2.786	
405.900	-6.285	
406.000	-5.318	
406.100	17.177	
406.200	24.636	
406.300	1.109	
406.400	0.095	
406.500	2.423	
406.600	14.938	
406.700	6.646	
406.800	2.082	
406.900	6.500	
407.000	-1.763	
407.100	8.261	
407.200	7.982	
407.300	20.866	
407.400	6.981	
407.500	5.459	
407.600	-5.966	
407.700	11.412	
407.800	11.589	
407.900	-2.963	
408.000	14.125	
408.100	2.933	
408.200	-4.081	
408.300	17.686	
408.400	10.383	
408.500	21.610	
408.600	11.844	
408.700	3.068	
408.800	4.899	
408.900	-5.295	
409.000	12.461	
409.100	9.560	
409.200	-3.590	
409.300	-6.984	
409.400	3.508	
409.500	6.829	
409.600	7.546	
409.700	5.992	
409.800	4.952	
409.900	-11.333	
410.000	19.968	
410.100	10.689	
410.200	27.894	
410.300	29.775	
410.400	6.322	
410.500	-8.922	
410.600	5.061	
410.700	13.370	
410.800	21.333	
410.900	6.634	
411.000	19.140	
411.100	2.580	
411.200	2.084	
411.300	29.956	
411.400	13.967	
411.500	5.152	
411.600	14.559	
411.700	4.255	
411.800	3.414	
411.900	10.546	
412.000	17.218	
412.100	20.857	
412.200	7.295	
412.300	11.551	
412.400	7.294	
412.500	0.118	
412.600	14.824	
412.700	-4.246	
412.800	5.750	
412.900	14.663	
413.000	11.844	
413.100	24.436	
413.200	17.465	
413.300	-11.498	
413.400	0.855	
413.500	0.515	
413.600	17.070	
413.700	17.458	
413.800	-1.148	
413.900	17.439	
414.000	-11.186	
414.100	1.511	
414.200	13.947	
414.300	21.260	
414.400	29.341	
414.500	-1.586	
414.600	9.461	
414.700	2.759	
414.800	14.672	
414.900	15.039	
415.000	4.430	
415.100	13.323	
415.200	12.818	
415.300	0.326	
415.400	9.483	
415.500	40.595	
415.600	2.173	
415.700	-3.260	
415.800	-0.153	
415.900	6.132	
416.000	1.579	
416.100	22.160	
416.200	9.820	
416.300	-2.163	
416.400	-0.415	
416.500	16.204	
416.600	24.530	
416.700	11.956	
416.800	3.854	
416.900	-5.954	
417.000	10.115	
417.100	23.617	
417.200	16.452	
417.300	9.307	
417.400	39.775	
417.500	3.436	
417.600	11.222	
417.700	12.867	
417.800	3.098	
417.900	-1.861	
418.000	0.115	
418.100	5.708	
418.200	16.376	
418.300	-17.939	
418.400	28.222	
418.500	-3.668	
418.600	31.035	
418.700	6.213	
418.800	-10.441	
418.900	26.778	
419.000	9.814	
419.100	17.907	
419.200	-4.566	
419.300	-4.085	
419.400	18.806	
419.500	7.413	
419.600	8.799	
419.700	21.296	
419.800	-9.735	
419.900	19.160	
420.000	25.881	
420.100	-9.756	
420.200	-0.050	
420.300	11.523	
420.400	5.858	
420.500	8.457	
420.600	-8.687	
420.700	26.066	
420.800	-0.731	
420.900	18.756	
421.000	10.778	
421.100	-1.815	
421.200	0.016	
421.300	1.765	
421.400	7.400	
421.500	20.004	
421.600	10.592	
421.700	8.356	
421.800	7.299	
421.900	-18.442	
422.000	19.587	
422.100	15.047	
422.200	10.867	
422.300	9.242	
422.400	2.674	
422.500	18.170	
422.600	11.700	
422.700	9.339	
422.800	1.227	
422.900	13.540	
423.000	5.565	
423.100	22.895	
423.200	4.498	
423.300	6.682	
423.400	10.292	
423.500	23.165	
423.600	17.978	
423.700	29.581	
423.800	0.223	
423.900	9.687	
424.000	13.127	
424.100	10.074	
424.200	19.786	
424.300	7.705	
424.400	9.906	
424.500	-1.686	
424.600	0.907	
424.700	3.708	
424.800	23.218	
424.900	3.955	
425.000	12.989	
425.100	3.957	
425.200	-7.818	
425.300	13.254	
425.400	15.812	
425.500	20.260	
425.600	7.945	
425.700	3.748	
425.800	-1.160	
425.900	1.427	
426.000	13.272	
426.100	4.844	
426.200	6.206	
426.300	-1.506	
426.400	2.369	
426.500	3.444	
426.600	2.651	
426.700	16.909	
426.800	19.683	
426.900	17.120	
427.000	12.901	
427.100	-5.665	
427.200	19.674	
427.300	-11.767	
427.400	1.504	
427.500	0.078	
427.600	11.464	
427.700	15.194	
427.800	3.798	
427.900	28.588	
428.000	-5.394	
428.100	-6.192	
428.200	0.758	
428.300	20.987	
428.400	6.063	
428.500	-11.045	
428.600	10.283	
428.700	-16.007	
428.800	5.373	
428.900	23.676	
429.000	-3.243	
429.100	30.735	
429.200	8.311	
429.300	5.447	
429.400	-17.794	
429.500	30.706	
429.600	23.208	
429.700	2.462	
429.800	2.009	
429.900	0.566	
430.000	9.218	
430.100	11.008	
430.200	11.529	
430.300	3.720	
430.400	7.911	
430.500	5.830	
430.600	-7.953	
430.700	29.410	
430.800	-3.671	
430.900	0.447	
431.000	-9.687	
431.100	17.442	
431.200	-3.691	
431.300	12.415	
431.400	10.021	
431.500	-1.574	
431.600	4.508	
431.700	-3.438	
431.800	11.262	
431.900	4.687	
432.000	9.489	
432.100	0.164	
432.200	10.661	
432.300	-7.187	
432.400	23.118	
432.500	14.772	
432.600	0.811	
432.700	2.900	
432.800	0.185	
432.900	11.885	
433.000	0.623	
433.100	11.506	
433.200	15.180	
433.300	8.424	
433.400	10.274	
433.500	-13.268	
433.600	11.108	
433.700	6.944	
433.800	7.822	
433.900	-2.855	
434.000	3.333	
434.100	5.878	
434.200	3.644	
434.300	13.086	
434.400	6.464	
434.500	-11.085	
434.600	8.822	
434.700	5.810	
434.800	14.119	
434.900	5.987	
435.000	13.629	
435.100	8.359	
435.200	-4.508	
435.300	9.051	
435.400	33.797	
435.500	0.850	
435.600	-0.532	
435.700	-9.682	
435.800	11.587	
435.900	22.339	
436.000	1.598	
436.100	6.307	
436.200	-0.714	
436.300	5.483	
436.400	-5.266	
436.500	-2.177	
436.600	12.027	
436.700	2.838	
436.800	13.207	
436.900	-8.956	
437.000	10.885	
437.100	19.698	
437.200	-14.603	
437.300	11.843	
437.400	8.758	
437.500	15.862	
437.600	14.114	
437.700	4.511	
437.800	6.893	
437.900	8.881	
438.000	1.536	
438.100	15.456	
438.200	-6.491	
438.300	-13.204	
438.400	3.926	
438.500	-3.579	
438.600	-15.057	
438.700	0.298	
438.800	12.383	
438.900	12.519	
439.000	8.268	
439.100	19.458	
439.200	2.968	
439.300	3.417	
439.400	26.129	
439.500	19.003	
439.600	2.816	
439.700	22.353	
439.800	-11.173	
439.900	13.166	
440.000	5.363	
440.100	11.552	
440.200	5.799	
440.300	-3.495	
440.400	5.391	
440.500	10.749	
440.600	2.387	
440.700	18.212	
440.800	3.321	
440.900	20.328	
441.000	2.362	
441.100	11.313	
441.200	18.283	
441.300	5.146	
441.400	12.030	
441.500	-0.692	
441.600	2.337	
441.700	16.336	
441.800	9.628	
441.900	-9.421	
442.000	1.034	
442.100	5.804	
442.200	10.231	
442.300	9.993	
442.400	24.027	
442.500	7.573	
442.600	-4.608	
442.700	5.534	
442.800	7.374	
442.900	16.846	
443.000	4.124	
443.100	0.032	
443.200	14.356	
443.300	8.532	
443.400	6.278	
443.500	7.236	
443.600	4.769	
443.700	-1.384	
443.800	-8.155	
443.900	1.746	
444.000	20.258	
444.100	11.577	
444.200	12.715	
444.300	-8.103	
444.400	-0.362	
444.500	-2.742	
444.600	5.390	
444.700	19.964	
444.800	-11.967	
444.900	-1.668	
445.000	13.185	
445.100	8.525	
445.200	17.755	
445.300	24.374	
445.400	14.426	
445.500	10.564	
445.600	-3.414	
445.700	-17.010	
445.800	10.354	
445.900	3.762	
446.000	1.929	
446.100	-2.407	
446.200	1.357	
446.300	25.471	
446.400	3.461	
446.500	13.269	
446.600	19.944	
446.700	11.011	
446.800	1.985	
446.900	-3.488	
447.000	28.255	
447.100	15.092	
447.200	-0.304	
447.300	-6.190	
447.400	3.699	
447.500	20.718	
447.600	-4.118	
447.700	2.151	
447.800	-0.074	
447.900	1.468	
448.000	-2.812	
448.100	22.302	
448.200	11.812	
448.300	7.970	
448.400	2.913	
448.500	-6.915	
448.600	12.155	
448.700	14.788	
448.800	-2.061	
448.900	7.616	
449.000	3.359	
449.100	5.844	
449.200	7.525	
449.300	6.282	
449.400	-0.764	
449.500	32.689	
449.600	14.796	
449.700	-8.382	
449.800	-0.149	
449.900	10.703	
450.000	-7.773	
450.100	-6.397	
450.200	-4.838	
450.300	19.949	
450.400	1.002	
450.500	3.249	
450.600	26.918	
450.700	-5.055	
450.800	3.556	
450.900	-17.390	
451.000	14.569	
451.100	17.273	
451.200	3.405	
451.300	-2.447	
451.400	-8.302	
451.500	-0.028	
451.600	-2.970	
451.700	12.359	
451.800	1.703	
451.900	3.498	
452.000	11.264	
452.100	8.048	
452.200	26.194	
452.300	-1.954	
452.400	-8.373	
452.500	6.353	
452.600	9.637	
452.700	7.754	
452.800	11.206	
452.900	-0.646	
453.000	1.756	
453.100	-1.038	
453.200	-2.486	
453.300	7.173	
453.400	7.167	
453.500	21.945	
453.600	14.262	
453.700	9.219	
453.800	2.708	
453.900	2.057	
454.000	10.933	
454.100	31.806	
454.200	9.513	
454.300	-10.515	
454.400	16.254	
454.500	-1.620	
454.600	5.854	
454.700	0.957	
454.800	11.707	
454.900	3.146	
455.000	15.461	
455.100	16.319	
455.200	6.748	
455.300	9.917	
455.400	6.794	
455.500	5.036	
455.600	13.193	
455.700	14.259	
455.800	10.417	
455.900	-3.253	
456.000	10.243	
456.100	-1.114	
456.200	4.249	
456.300	1.822	
456.400	6.098	
456.500	-11.343	
456.600	-12.864	
456.700	3.612	
456.800	25.459	
456.900	30.960	
457.000	16.059	
457.100	2.683	
457.200	-18.688	
457.300	8.136	
457.400	6.524	
457.500	19.563	
457.600	15.249	
457.700	-6.632	
457.800	-8.873	
457.900	14.071	
458.000	3.815	
458.100	22.025	
458.200	22.374	
458.300	1.352	
458.400	15.485	
458.500	5.150	
458.600	7.492	
458.700	28.197	
458.800	2.737	
458.900	9.218	
459.000	0.041	
459.100	-2.727	
459.200	18.946	
459.300	18.045	
459.400	20.975	
459.500	8.871	
459.600	0.187	
459.700	21.085	
459.800	13.074	
459.900	-9.600	
460.000	26.491	
460.100	10.102	
460.200	-6.783	
460.300	-1.374	
460.400	10.288	
460.500	12.348	
460.600	-2.967	
460.700	15.739	
460.800	9.985	
460.900	-3.027	
461.000	21.169	
461.100	-0.401	
461.200	15.008	
461.300	2.488	
461.400	-4.854	
461.500	1.006	
461.600	20.643	
461.700	22.435	
461.800	12.689	
461.900	-9.008	
462.000	17.514	
462.100	11.578	
462.200	24.610	
462.300	5.871	
462.400	3.436	
462.500	15.056	
462.600	18.506	
462.700	32.490	
462.800	16.049	
462.900	-5.649	
463.000	18.182	
463.100	-9.544	
463.200	13.748	
463.300	24.847	
463.400	24.096	
463.500	-4.482	
463.600	-1.651	
463.700	16.392	
463.800	25.423	
463.900	13.419	
464.000	-6.162	
464.100	9.464	
464.200	8.504	
464.300	-2.951	
464.400	6.490	
464.500	20.500	
464.600	21.044	
464.700	16.509	
464.800	4.663	
464.900	19.413	
465.000	13.682	
465.100	14.852	
465.200	-1.437	
465.300	9.623	
465.400	-7.682	
465.500	-12.504	
465.600	13.376	
465.700	25.552	
465.800	8.334	
465.900	-1.264	
466.000	-5.818	
466.100	18.874	
466.200	19.948	
466.300	23.679	
466.400	1.584	
466.500	7.600	
466.600	3.146	
466.700	15.400	
466.800	17.036	
466.900	22.295	
467.000	19.578	
467.100	21.329	
467.200	-11.947	
467.300	19.600	
467.400	33.822	
467.500	32.906	
467.600	3.028	
467.700	10.305	
467.800	3.589	
467.900	16.983	
468.000	23.009	
468.100	21.343	
468.200	-5.434	
468.300	-8.522	
468.400	7.112	
468.500	14.134	
468.600	10.592	
468.700	14.053	
468.800	5.367	
468.900	7.646	
469.000	19.644	
469.100	25.801	
469.200	13.035	
469.300	9.615	
469.400	8.434	
469.500	10.832	
469.600	7.533	
469.700	-0.656	
469.800	32.870	
469.900	35.055	
470.000	22.234	
470.100	4.569	
470.200	-4.433	
470.300	17.663	
470.400	22.039	
470.500	12.227	
470.600	17.039	
470.700	-3.114	
470.800	11.731	
470.900	10.982	
471.000	10.264	
471.100	23.566	
471.200	-17.556	
471.300	3.559	
471.400	6.237	
471.500	28.124	
471.600	11.274	
471.700	3.176	
471.800	22.876	
471.900	17.734	
472.000	10.639	
472.100	12.493	
472.200	3.380	
472.300	13.144	
472.400	-1.083	
472.500	7.541	
472.600	11.778	
472.700	4.450	
472.800	15.737	
472.900	18.878	
473.000	4.732	
473.100	24.769	
473.200	15.911	
473.300	18.174	
473.400	20.218	
473.500	2.966	
473.600	1.452	
473.700	24.214	
473.800	28.755	
473.900	30.677	
474.000	11.907	
474.100	0.917	
474.200	11.084	
474.300	14.150	
474.400	28.575	
474.500	12.959	
474.600	-8.562	
474.700	2.458	
474.800	1.226	
474.900	14.651	
475.000	15.099	
475.100	35.461	
475.200	20.228	
475.300	7.995	
475.400	7.183	
475.500	0.694	
475.600	11.040	
475.700	26.499	
475.800	17.350	
475.900	24.313	
476.000	-2.166	
476.100	25.139	
476.200	16.003	
476.300	13.690	
476.400	9.014	
476.500	2.876	
476.600	15.045	
476.700	22.879	
476.800	24.844	
476.900	-1.482	
477.000	9.865	
477.100	5.139	
477.200	9.043	
477.300	10.750	
477.400	12.443	
477.500	2.886	
477.600	10.719	
477.700	10.965	
477.800	2.397	
477.900	17.709	
478.000	28.932	
478.100	3.159	
478.200	6.350	
478.300	21.011	
478.400	-7.294	
478.500	21.376	
478.600	20.731	
478.700	7.410	
478.800	7.432	
478.900	11.676	
479.000	16.184	
479.100	17.317	
479.200	13.703	
479.300	18.353	
479.400	13.797	
479.500	5.108	
479.600	16.641	
479.700	22.152	
479.800	13.432	
479.900	16.487	
480.000	15.804	
480.100	-2.227	
480.200	13.886	
480.300	23.704	
480.400	3.639	
480.500	19.099	
480.600	1.214	
480.700	8.346	
480.800	20.815	
480.900	24.138	
481.000	-0.505	
481.100	9.252	
481.200	20.175	
481.300	9.916	
481.400	9.897	
481.500	30.584	
481.600	16.470	
481.700	27.679	
481.800	21.312	
481.900	9.706	
482.000	10.409	
482.100	6.375	
482.200	11.315	
482.300	-5.445	
482.400	19.958	
482.500	7.649	
482.600	14.156	
482.700	18.321	
482.800	7.827	
482.900	8.752	
483.000	41.065	
483.100	13.148	
483.200	17.361	
483.300	19.428	
483.400	6.112	
483.500	28.313	
483.600	10.810	
483.700	6.324	
483.800	25.855	
483.900	16.155	
484.000	15.168	
484.100	2.696	
484.200	31.287	
484.300	11.503	
484.400	23.444	
484.500	11.269	
484.600	8.027	
484.700	1.267	
484.800	19.007	
484.900	15.072	
485.000	15.819	
485.100	13.720	
485.200	26.906	
485.300	8.431	
485.400	8.344	
485.500	31.798	
485.600	22.898	
485.700	18.329	
485.800	9.321	
485.900	11.499	
486.000	19.736	
486.100	28.268	
486.200	31.660	
486.300	17.851	
486.400	-3.494	
486.500	6.966	
486.600	21.405	
486.700	-4.584	
486.800	10.749	
486.900	15.853	
487.000	29.077	
487.100	31.402	
487.200	30.769	
487.300	22.830	
487.400	5.472	
487.500	-5.726	
487.600	31.704	
487.700	17.800	
487.800	13.031	
487.900	29.767	
488.000	23.042	
488.100	15.746	
488.200	7.614	
488.300	8.756	
488.400	40.033	
488.500	34.727	
488.600	-10.696	
488.700	36.487	
488.800	3.429	
488.900	13.720	
489.000	15.861	
489.100	-8.038	
489.200	15.657	
489.300	17.190	
489.400	25.725	
489.500	4.313	
489.600	30.168	
489.700	13.839	
489.800	15.693	
489.900	5.101	
490.000	22.560	
490.100	1.045	
490.200	21.479	
490.300	25.171	
490.400	16.184	
490.500	23.204	
490.600	13.021	
490.700	23.068	
490.800	22.657	
490.900	-2.921	
491.000	22.264	
491.100	17.265	
491.200	22.284	
491.300	17.970	
491.400	26.366	
491.500	16.556	
491.600	13.111	
491.700	7.030	
491.800	15.163	
491.900	2.382	
492.000	21.516	
492.100	10.290	
492.200	7.777	
492.300	7.531	
492.400	16.991	
492.500	24.424	
492.600	18.593	
492.700	27.252	
492.800	20.648	
492.900	22.201	
493.000	2.874	
493.100	21.024	
493.200	34.584	
493.300	13.887	
493.400	-1.663	
493.500	24.281	
493.600	30.145	
493.700	14.872	
493.800	13.049	
493.900	10.216	
494.000	6.588	
494.100	13.703	
494.200	8.715	
494.300	31.547	
494.400	9.507	
494.500	2.657	
494.600	-9.428	
494.700	35.534	
494.800	16.074	
494.900	14.057	
495.000	9.950	
495.100	11.389	
495.200	6.538	
495.300	16.862	
495.400	8.151	
495.500	8.304	
495.600	20.100	
495.700	10.999	
495.800	24.124	
495.900	28.575	
496.000	27.122	
496.100	16.600	
496.200	18.685	
496.300	9.987	
496.400	9.734	
496.500	14.201	
496.600	15.875	
496.700	20.267	
496.800	21.140	
496.900	13.035	
497.000	4.424	
497.100	4.525	
497.200	23.328	
497.300	21.733	
497.400	9.240	
497.500	2.634	
497.600	20.720	
497.700	-3.074	
497.800	20.796	
497.900	2.482	
498.000	8.494	
498.100	29.231	
498.200	26.870	
498.300	6.112	
498.400	21.626	
498.500	15.173	
498.600	13.823	
498.700	10.325	
498.800	10.976	
498.900	24.392	
499.000	20.155	
499.100	10.670	
499.200	21.637	
499.300	-0.853	
499.400	19.738	
499.500	21.993	
499.600	33.846	
499.700	15.988	
499.800	7.823	
499.900	-10.254	
500.000	27.046	
500.100	5.696	
500.200	-0.840	
500.300	27.262	
500.400	6.795	
500.500	23.217	
500.600	32.764	
500.700	8.912	
500.800	7.436	
500.900	19.831	
501.000	4.643	
501.100	-3.590	
501.200	7.175	
501.300	29.244	
501.400	15.458	
501.500	8.758	
501.600	-3.229	
501.700	22.050	
501.800	26.009	
501.900	24.311	
502.000	17.180	
502.100	5.341	
502.200	17.005	
502.300	24.663	
502.400	28.285	
502.500	15.828	
502.600	4.324	
502.700	-2.614	
502.800	5.154	
502.900	21.305	
503.000	5.748	
503.100	18.087	
503.200	6.187	
503.300	18.779	
503.400	8.497	
503.500	10.605	
503.600	7.705	
503.700	27.632	
503.800	28.829	
503.900	2.967	
504.000	24.263	
504.100	-6.196	
504.200	26.405	
504.300	-5.022	
504.400	-3.996	
504.500	9.336	
504.600	33.702	
504.700	26.631	
504.800	26.227	
504.900	-0.196	
505.000	-1.222	
505.100	3.284	
505.200	20.357	
505.300	18.737	
505.400	19.674	
505.500	38.266	
505.600	2.993	
505.700	-5.536	
505.800	15.679	
505.900	20.274	
506.000	24.824	
506.100	26.240	
506.200	16.210	
506.300	16.370	
506.400	32.214	
506.500	9.743	
506.600	16.728	
506.700	10.568	
506.800	13.765	
506.900	-8.738	
507.000	11.075	
507.100	25.908	
507.200	26.621	
507.300	7.572	
507.400	-3.384	
507.500	-3.730	
507.600	23.811	
507.700	-12.509	
507.800	29.665	
507.900	8.912	
508.000	11.575	
508.100	22.821	
508.200	20.050	
508.300	5.320	
508.400	15.443	
508.500	17.173	
508.600	10.532	
508.700	3.617	
508.800	3.115	
508.900	4.778	
509.000	7.501	
509.100	9.334	
509.200	25.804	
509.300	2.329	
509.400	14.826	
509.500	29.064	
509.600	25.903	
509.700	8.606	
509.800	12.579	
509.900	25.334	
510.000	8.721	
510.100	14.840	
510.200	19.225	
510.300	7.763	
510.400	24.438	
510.500	18.834	
510.600	9.068	
510.700	18.338	
510.800	-9.077	
510.900	25.293	
511.000	24.133	
511.100	19.400	
511.200	16.964	
511.300	-6.420	
511.400	10.148	
511.500	18.788	
511.600	18.055	
511.700	29.837	
511.800	15.659	
511.900	4.041	
512.000	19.432	
512.100	2.719	
512.200	14.574	
512.300	22.845	
512.400	13.675	
512.500	10.758	
512.600	26.077	
512.700	9.539	
512.800	24.792	
512.900	1.479	
513.000	1.292	
513.100	17.138	
513.200	-4.219	
513.300	6.554	
513.400	23.176	
513.500	22.668	
513.600	25.368	
513.700	7.245	
513.800	10.514	
513.900	2.894	
514.000	7.555	
514.100	-0.866	
514.200	8.155	
514.300	16.393	
514.400	5.830	
514.500	27.112	
514.600	8.178	
514.700	24.663	
514.800	15.042	
514.900	0.707	
515.000	24.868	
515.100	8.911	
515.200	4.780	
515.300	18.688	
515.400	18.903	
515.500	17.315	
515.600	14.145	
515.700	-2.114	
515.800	15.499	
515.900	11.500	
516.000	8.230	
516.100	27.508	
516.200	-8.165	
516.300	5.270	
516.400	18.112	
516.500	35.587	
516.600	21.412	
516.700	4.080	
516.800	-11.687	
516.900	-8.552	
517.000	21.839	
517.100	36.358	
517.200	16.601	
517.300	7.260	
517.400	15.531	
517.500	13.601	
517.600	17.478	
517.700	3.077	
517.800	16.313	
517.900	9.789	
518.000	-13.888	
518.100	3.112	
518.200	31.082	
518.300	23.814	
518.400	23.396	
518.500	9.551	
518.600	10.863	
518.700	27.935	
518.800	-1.149	
518.900	10.613	
519.000	25.800	
519.100	0.566	
519.200	20.512	
519.300	15.756	
519.400	24.491	
519.500	19.208	
519.600	-11.704	
519.700	12.977	
519.800	28.511	
519.900	27.191	
520.000	-1.376	
520.100	14.833	
520.200	11.636	
520.300	18.757	
520.400	10.643	
520.500	17.958	
520.600	11.590	
520.700	15.802	
520.800	21.497	
520.900	10.752	
521.000	18.266	
521.100	-0.221	
521.200	11.228	
521.300	16.275	
521.400	0.119	
521.500	12.608	
521.600	16.653	
521.700	21.980	
521.800	14.708	
521.900	10.744	
522.000	5.145	
522.100	9.033	
522.200	17.910	
522.300	27.713	
522.400	22.584	
522.500	-7.831	
522.600	-12.530	
522.700	11.058	
522.800	22.774	
522.900	17.968	
523.000	17.970	
523.100	26.919	
523.200	2.173	
523.300	10.351	
523.400	4.094	
523.500	15.095	
523.600	-13.338	
523.700	18.772	
523.800	-5.279	
523.900	13.481	
524.000	20.587	
524.100	11.370	
524.200	24.575	
524.300	13.608	
524.400	14.731	
524.500	16.161	
524.600	23.742	
524.700	15.511	
524.800	17.039	
524.900	21.851	
525.000	-7.983	
525.100	-4.373	
525.200	6.295	
525.300	33.847	
525.400	31.163	
525.500	22.175	
525.600	16.857	
525.700	27.992	
525.800	19.650	
525.900	9.896	
526.000	2.917	
526.100	20.623	
526.200	17.814	
526.300	19.276	
526.400	14.353	
526.500	16.946	
526.600	2.102	
526.700	5.675	
526.800	-4.407	
526.900	26.268	
527.000	11.606	
527.100	28.141	
527.200	8.449	
527.300	29.350	
527.400	15.874	
527.500	1.028	
527.600	35.828	
527.700	22.608	
527.800	0.043	
527.900	8.406	
528.000	13.690	
528.100	23.017	
528.200	17.323	
528.300	23.071	
528.400	20.936	
528.500	17.658	
528.600	23.533	
528.700	18.847	
528.800	17.504	
528.900	20.575	
529.000	11.378	
529.100	18.355	
529.200	14.202	
529.300	31.310	
529.400	6.671	
529.500	13.922	
529.600	1.234	
529.700	19.640	
529.800	12.932	
529.900	28.377	
530.000	7.199	
530.100	28.324	
530.200	-9.284	
530.300	17.105	
530.400	26.158	
530.500	25.649	
530.600	12.404	
530.700	18.743	
530.800	6.652	
530.900	6.181	
531.000	16.838	
531.100	21.537	
531.200	23.228	
531.300	18.427	
531.400	16.196	
531.500	20.549	
531.600	18.335	
531.700	9.339	
531.800	29.461	
531.900	20.225	
532.000	19.029	
532.100	14.590	
532.200	22.540	
532.300	1.725	
532.400	34.208	
532.500	18.999	
532.600	-3.718	
532.700	35.361	
532.800	22.504	
532.900	12.728	
533.000	9.967	
533.100	2.934	
533.200	23.476	
533.300	26.542	
533.400	20.688	
533.500	19.717	
533.600	-1.950	
533.700	10.174	
533.800	26.540	
533.900	22.525	
534.000	14.061	
534.100	22.574	
534.200	23.885	
534.300	0.591	
534.400	11.011	
534.500	20.642	
534.600	21.342	
534.700	21.176	
534.800	10.206	
534.900	10.938	
535.000	14.328	
535.100	12.604	
535.200	6.055	
535.300	25.013	
535.400	28.156	
535.500	13.173	
535.600	27.703	
535.700	7.943	
535.800	7.790	
535.900	11.432	
536.000	16.941	
536.100	13.304	
536.200	19.824	
536.300	22.684	
536.400	13.932	
536.500	21.834	
536.600	6.366	
536.700	20.077	
536.800	13.947	
536.900	18.298	
537.000	0.622	
537.100	16.219	
537.200	21.886	
537.300	4.679	
537.400	34.922	
537.500	29.000	
537.600	18.660	
537.700	-0.793	
537.800	35.296	
537.900	21.370	
538.000	17.026	
538.100	26.303	
538.200	11.630	
538.300	21.545	
538.400	13.079	
538.500	16.093	
538.600	19.901	
538.700	21.944	
538.800	11.911	
538.900	9.514	
539.000	-1.714	
539.100	23.659	
539.200	-1.637	
539.300	27.683	
539.400	10.739	
539.500	28.511	
539.600	10.089	
539.700	14.039	
539.800	34.169	
539.900	-2.930	
540.000	13.216	
540.100	21.634	
540.200	14.267	
540.300	17.416	
540.400	22.691	
540.500	8.405	
540.600	9.075	
540.700	10.396	
540.800	15.008	
540.900	17.907	
541.000	19.960	
541.100	8.525	
541.200	16.002	
541.300	18.808	
541.400	17.562	
541.500	10.805	
541.600	-8.432	
541.700	24.249	
541.800	4.443	
541.900	11.743	
542.000	35.299	
542.100	19.792	
542.200	-3.343	
542.300	6.394	
542.400	8.444	
542.500	9.558	
542.600	12.576	
542.700	21.845	
542.800	13.336	
542.900	17.815	
543.000	29.350	
543.100	2.274	
543.200	14.553	
543.300	34.343	
543.400	9.745	
543.500	7.023	
543.600	-9.491	
543.700	8.648	
543.800	16.143	
543.900	11.621	
544.000	11.103	
544.100	12.211	
544.200	-7.844	
544.300	7.568	
544.400	33.181	
544.500	22.603	
544.600	9.182	
544.700	-10.213	
544.800	9.046	
544.900	6.744	
545.000	34.446	
545.100	27.972	
545.200	3.490	
545.300	23.041	
545.400	1.376	
545.500	10.565	
545.600	16.334	
545.700	11.815	
545.800	-2.578	
545.900	18.779	
546.000	17.584	
546.100	6.602	
546.200	-4.879	
546.300	17.329	
546.400	20.293	
546.500	6.129	
546.600	21.209	
546.700	5.240	
546.800	13.571	
546.900	3.728	
547.000	18.260	
547.100	-0.299	
547.200	12.137	
547.300	2.980	
547.400	4.075	
547.500	24.926	
547.600	-1.213	
547.700	14.719	
547.800	23.988	
547.900	11.568	
548.000	5.371	
548.100	8.836	
548.200	11.294	
548.300	-4.790	
548.400	2.618	
548.500	26.409	
548.600	-12.482	
548.700	20.506	
548.800	20.195	
548.900	10.139	
549.000	2.698	
549.100	2.225	
549.200	12.906	
549.300	-9.979	
549.400	6.436	
549.500	3.978	
549.600	14.999	
549.700	16.153	
549.800	10.116	
549.900	-7.275	
550.000	20.379	
550.100	2.693	
550.200	-7.027	
550.300	4.980	
550.400	1.029	
550.500	16.920	
550.600	-3.539	
550.700	2.957	
550.800	22.239	
550.900	21.638	
551.000	13.383	
551.100	13.299	
551.200	4.501	
551.300	-6.672	
551.400	18.947	
551.500	29.610	
551.600	14.954	
551.700	16.179	
551.800	-2.568	
551.900	4.078	
552.000	7.998	
552.100	-7.937	
552.200	9.666	
552.300	14.456	
552.400	7.604	
552.500	-3.991	
552.600	15.355	
552.700	7.956	
552.800	5.939	
552.900	2.320	
553.000	7.286	
553.100	6.718	
553.200	22.432	
553.300	31.542	
553.400	-0.961	
553.500	0.009	
553.600	4.557	
553.700	18.791	
553.800	-6.560	
553.900	6.181	
554.000	17.548	
554.100	-3.377	
554.200	4.222	
554.300	22.380	
554.400	7.078	
554.500	0.858	
554.600	19.473	
554.700	3.802	
554.800	-6.272	
554.900	20.263	
555.000	19.023	
555.100	28.645	
555.200	-0.836	
555.300	-0.237	
555.400	16.473	
555.500	20.707	
555.600	12.006	
555.700	9.093	
555.800	2.925	
555.900	-14.242	
556.000	7.952	
556.100	7.596	
556.200	11.443	
556.300	19.945	
556.400	5.072	
556.500	4.671	
556.600	7.539	
556.700	22.076	
556.800	12.878	
556.900	11.653	
557.000	-5.043	
557.100	14.868	
557.200	7.950	
557.300	19.819	
557.400	12.019	
557.500	11.506	
557.600	12.770	
557.700	5.443	
557.800	16.157	
557.900	0.661	
558.000	1.828	
558.100	3.212	
558.200	-1.525	
558.300	2.989	
558.400	15.385	
558.500	20.133	
558.600	16.378	
558.700	-1.681	
558.800	-5.422	
558.900	14.965	
559.000	12.485	
559.100	0.247	
559.200	22.106	
559.300	6.948	
559.400	-5.024	
559.500	1.905	
559.600	11.441	
559.700	15.452	
559.800	15.369	
559.900	8.531	
560.000	11.596	
560.100	21.719	
560.200	1.885	
560.300	5.646	
560.400	8.402	
560.500	-12.071	
560.600	11.918	
560.700	20.153	
560.800	2.960	
560.900	12.837	
561.000	12.474	
561.100	-1.395	
561.200	9.912	
561.300	-9.135	
561.400	34.723	
561.500	2.604	
561.600	-7.409	
561.700	10.541	
561.800	5.963	
561.900	23.636	
562.000	18.555	
562.100	15.617	
562.200	10.742	
562.300	13.451	
562.400	0.813	
562.500	10.167	
562.600	29.896	
562.700	2.476	
562.800	2.526	
562.900	-9.895	
563.000	-1.262	
563.100	0.929	
563.200	15.954	
563.300	-2.371	
563.400	4.464	
563.500	6.446	
563.600	23.453	
563.700	0.960	
563.800	19.453	
563.900	17.431	
564.000	13.450	
564.100	9.121	
564.200	11.972	
564.300	5.029	
564.400	17.290	
564.500	25.984	
564.600	0.912	
564.700	-1.273	
564.800	7.953	
564.900	1.184	
565.000	0.593	
565.100	16.068	
565.200	2.599	
565.300	12.166	
565.400	13.127	
565.500	-11.114	
565.600	4.852	
565.700	23.603	
565.800	21.779	
565.900	11.358	
566.000	-4.039	
566.100	2.275	
566.200	26.018	
566.300	21.077	
566.400	17.627	
566.500	11.933	
566.600	14.822	
566.700	17.677	
566.800	14.421	
566.900	-12.772	
567.000	5.290	
567.100	7.714	
567.200	2.312	
567.300	25.942	
567.400	-11.265	
567.500	18.112	
567.600	20.050	
567.700	32.074	
567.800	22.631	
567.900	3.363	
568.000	12.508	
568.100	-10.548	
568.200	5.077	
568.300	19.895	
568.400	5.437	
568.500	19.738	
568.600	7.306	
568.700	2.991	
568.800	15.859	
568.900	2.681	
569.000	19.191	
569.100	6.727	
569.200	19.762	
569.300	-12.942	
569.400	7.041	
569.500	28.355	
569.600	11.281	
569.700	13.568	
569.800	-8.379	
569.900	-3.898	
570.000	9.621	
570.100	18.259	
570.200	12.504	
570.300	1.885	
570.400	20.677	
570.500	-3.483	
570.600	26.184	
570.700	-0.824	
570.800	17.848	
570.900	8.076	
571.000	-5.389	
571.100	13.853	
571.200	17.110	
571.300	13.181	
571.400	14.937	
571.500	5.074	
571.600	7.551	
571.700	-5.361	
571.800	9.858	
571.900	2.236	
572.000	7.623	
572.100	34.707	
572.200	-0.971	
572.300	5.101	
572.400	21.919	
572.500	19.065	
572.600	5.120	
572.700	2.200	
572.800	3.383	
572.900	15.907	
573.000	21.255	
573.100	3.157	
573.200	11.540	
573.300	19.844	
573.400	13.509	
573.500	10.988	
573.600	31.077	
573.700	30.378	
573.800	7.647	
573.900	2.893	
574.000	-2.517	
574.100	-0.830	
574.200	23.961	
574.300	21.773	
574.400	7.900	
574.500	16.780	
574.600	2.922	
574.700	9.784	
574.800	4.599	
574.900	12.290	
575.000	21.588	
575.100	-1.195	
575.200	13.494	
575.300	9.578	
575.400	27.559	
575.500	11.122	
575.600	4.787	
575.700	-2.493	
575.800	11.850	
575.900	10.812	
576.000	26.278	
576.100	2.987	
576.200	22.304	
576.300	9.092	
576.400	-10.633	
576.500	20.604	
576.600	34.253	
576.700	14.684	
576.800	-26.984	
576.900	0.962	
577.000	32.847	
577.100	4.885	
577.200	15.632	
577.300	6.877	
577.400	6.057	
577.500	10.951	
577.600	30.070	
577.700	14.843	
577.800	4.149	
577.900	3.114	
578.000	13.914	
578.100	18.718	
578.200	0.823	
578.300	8.507	
578.400	-1.484	
578.500	11.810	
578.600	-8.779	
578.700	7.639	
578.800	23.585	
578.900	23.468	
579.000	17.419	
579.100	-0.387	
579.200	0.796	
579.300	19.453	
579.400	18.838	
579.500	15.233	
579.600	2.305	
579.700	8.903	
579.800	12.808	
579.900	7.126	
580.000	7.961	
580.100	28.842	
580.200	14.853	
580.300	5.961	
580.400	14.486	
580.500	21.646	
580.600	0.736	
580.700	10.143	
580.800	22.026	
580.900	-0.626	
581.000	-14.226	
581.100	15.193	
581.200	26.735	
581.300	26.675	
581.400	8.570	
581.500	8.914	
581.600	25.547	
581.700	20.774	
581.800	5.087	
581.900	15.382	
582.000	15.153	
582.100	1.884	
582.200	0.707	
582.300	-6.482	
582.400	0.291	
582.500	31.792	
582.600	20.094	
582.700	0.512	
582.800	7.944	
582.900	-3.747	
583.000	17.227	
583.100	36.821	
583.200	9.801	
583.300	7.304	
583.400	23.650	
583.500	9.614	
583.600	27.278	
583.700	1.731	
583.800	14.382	
583.900	-14.529	
584.000	12.729	
584.100	34.219	
584.200	22.490	
584.300	10.053	
584.400	-6.164	
584.500	15.413	
584.600	27.121	
584.700	30.921	
584.800	18.171	
584.900	23.230	
585.000	0.941	
585.100	2.078	
585.200	8.930	
585.300	5.459	
585.400	20.564	
585.500	27.460	
585.600	0.378	
585.700	-0.167	
585.800	15.632	
585.900	40.540	
586.000	1.118	
586.100	27.309	
586.200	15.422	
586.300	-9.785	
586.400	18.687	
586.500	13.726	
586.600	31.963	
586.700	12.024	
586.800	11.636	
586.900	16.614	
587.000	25.417	
587.100	19.594	
587.200	13.772	
587.300	13.706	
587.400	10.305	
587.500	5.677	
587.600	22.211	
587.700	33.081	
587.800	5.419	
587.900	11.818	
588.000	9.194	
588.100	16.705	
588.200	10.492	
588.300	29.993	
588.400	5.761	
588.500	14.184	
588.600	6.337	
588.700	20.299	
588.800	20.715	
588.900	20.516	
589.000	19.487	
589.100	13.434	
589.200	-3.671	
589.300	25.370	
589.400	7.577	
589.500	17.329	
589.600	20.747	
589.700	16.820	
589.800	-0.654	
589.900	7.506	
590.000	22.894	
590.100	17.284	
590.200	16.092	
590.300	17.668	
590.400	2.349	
590.500	25.378	
590.600	17.473	
590.700	20.101	
590.800	12.125	
590.900	-12.125	
591.000	4.811	
591.100	21.371	
591.200	1.422	
591.300	19.372	
591.400	9.675	
591.500	20.016	
591.600	9.320	
591.700	9.131	
591.800	17.590	
591.900	6.991	
592.000	7.834	
592.100	32.237	
592.200	6.742	
592.300	9.088	
592.400	22.448	
592.500	15.038	
592.600	4.579	
592.700	14.537	
592.800	22.957	
592.900	20.011	
593.000	27.970	
593.100	26.082	
593.200	1.553	
593.300	17.331	
593.400	28.259	
593.500	-0.481	
593.600	22.533	
593.700	32.672	
593.800	13.796	
593.900	13.111	
594.000	26.136	
594.100	28.035	
594.200	23.379	
594.300	5.249	
594.400	-1.660	
594.500	21.203	
594.600	8.375	
594.700	2.507	
594.800	21.316	
594.900	18.338	
595.000	10.812	
595.100	8.806	
595.200	5.933	
595.300	3.316	
595.400	22.427	
595.500	14.997	
595.600	6.203	
595.700	6.540	
595.800	13.492	
595.900	20.023	
596.000	22.830	
596.100	-7.327	
596.200	25.956	
596.300	19.210	
596.400	17.715	
596.500	7.692	
596.600	-2.811	
596.700	36.044	
596.800	4.708	
596.900	9.223	
597.000	25.413	
597.100	13.228	
597.200	18.004	
597.300	36.400	
597.400	16.994	
597.500	26.909	
597.600	27.671	
597.700	27.366	
597.800	14.130	
597.900	15.957	
598.000	16.018	
598.100	19.152	
598.200	27.395	
598.300	3.664	
598.400	17.388	
598.500	5.428	
598.600	21.237	
598.700	0.648	
598.800	21.789	
598.900	19.906	
599.000	14.794	
599.100	11.392	
599.200	30.021	
599.300	13.161	
599.400	10.403	
599.500	17.610	
599.600	15.751	
599.700	17.345	
599.800	16.187	
599.900	17.937	
600.000	11.516	
600.100	12.985	
600.200	13.808	
600.300	8.834	
600.400	8.625	
600.500	15.891	
600.600	30.774	
600.700	-2.782	
600.800	14.777	
600.900	3.685	
601.000	21.846	
601.100	19.183	
601.200	27.985	
601.300	15.399	
601.400	5.999	
601.500	-2.229	
601.600	24.112	
601.700	36.839	
601.800	22.526	
601.900	27.264	
602.000	12.079	
602.100	16.260	
602.200	19.888	
602.300	10.114	
602.400	14.093	
602.500	8.843	
602.600	5.930	
602.700	9.884	
602.800	25.548	
602.900	15.313	
603.000	14.952	
603.100	23.723	
603.200	6.803	
603.300	19.984	
603.400	39.108	
603.500	25.453	
603.600	-12.650	
603.700	6.220	
603.800	10.994	
603.900	18.093	
604.000	26.685	
604.100	28.827	
604.200	14.859	
604.300	15.542	
604.400	20.396	
604.500	13.850	
604.600	39.625	
604.700	27.473	
604.800	2.497	
604.900	12.619	
605.000	16.009	
605.100	23.164	
605.200	7.748	
605.300	37.262	
605.400	26.154	
605.500	1.879	
605.600	13.221	
605.700	22.104	
605.800	26.013	
605.900	13.419	
606.000	17.241	
606.100	4.771	
606.200	11.201	
606.300	23.310	
606.400	3.188	
606.500	17.774	
606.600	33.568	
606.700	31.955	
606.800	12.150	
606.900	16.529	
607.000	-8.946	
607.100	16.066	
607.200	10.269	
607.300	18.442	
607.400	27.460	
607.500	21.199	
607.600	19.948	
607.700	15.676	
607.800	-0.601	
607.900	4.441	
608.000	24.135	
608.100	5.552	
608.200	11.202	
608.300	20.003	
608.400	9.967	
608.500	-1.681	
608.600	26.962	
608.700	23.505	
608.800	28.909	
608.900	16.378	
609.000	-3.776	
609.100	8.149	
609.200	22.983	
609.300	26.671	
609.400	15.835	
609.500	-0.731	
609.600	13.810	
609.700	2.285	
609.800	8.413	
609.900	31.111	
610.000	10.191	
610.100	22.803	
610.200	19.593	
610.300	25.527	
610.400	9.311	
610.500	31.503	
610.600	10.376	
610.700	15.746	
610.800	5.803	
610.900	15.486	
611.000	26.771	
611.100	33.043	
611.200	13.215	
611.300	13.869	
611.400	-0.008	
611.500	33.532	
611.600	9.235	
611.700	27.999	
611.800	28.321	
611.900	0.309	
612.000	6.609	
612.100	19.456	
612.200	24.486	
612.300	27.543	
612.400	-0.336	
612.500	11.868	
612.600	-2.881	
612.700	20.940	
612.800	19.637	
612.900	2.842	
613.000	9.130	
613.100	6.519	
613.200	13.642	
613.300	19.312	
613.400	14.456	
613.500	18.946	
613.600	13.686	
613.700	10.532	
613.800	10.975	
613.900	22.955	
614.000	28.630	
614.100	11.104	
614.200	12.168	
614.300	10.085	
614.400	17.988	
614.500	22.872	
614.600	19.863	
614.700	17.304	
614.800	10.159	
614.900	17.358	
615.000	20.924	
615.100	18.667	
615.200	15.427	
615.300	5.854	
615.400	3.214	
615.500	12.700	
615.600	20.830	
615.700	3.969	
615.800	18.740	
615.900	0.234	
616.000	7.158	
616.100	7.311	
616.200	9.742	
616.300	16.102	
616.400	18.983	
616.500	-10.494	
616.600	3.802	
616.700	13.981	
616.800	14.339	
616.900	4.936	
617.000	24.796	
617.100	8.318	
617.200	30.534	
617.300	8.063	
617.400	11.687	
617.500	19.993	
617.600	24.542	
617.700	22.071	
617.800	5.091	
617.900	23.469	
618.000	36.120	
618.100	9.795	
618.200	10.828	
618.300	8.588	
618.400	13.663	
618.500	7.142	
618.600	19.910	
618.700	4.730	
618.800	8.569	
618.900	8.956	
619.000	13.628	
619.100	15.610	
619.200	10.386	
619.300	21.559	
619.400	13.362	
619.500	23.693	
619.600	1.414	
619.700	14.566	
619.800	10.853	
619.900	15.175	
620.000	11.090	
620.100	16.919	
620.200	4.423	
620.300	16.373	
620.400	24.090	
620.500	11.921	
620.600	14.006	
620.700	-1.124	
620.800	15.666	
620.900	17.539	
621.000	12.107	
621.100	28.015	
621.200	20.318	
621.300	16.334	
621.400	15.457	
621.500	19.596	
621.600	1.709	
621.700	24.200	
621.800	-6.929	
621.900	-5.770	
622.000	2.259	
622.100	24.033	
622.200	12.664	
622.300	23.011	
622.400	-12.389	
622.500	4.696	
622.600	19.722	
622.700	25.762	
622.800	12.672	
622.900	26.395	
623.000	-6.471	
623.100	7.072	
623.200	22.319	
623.300	33.163	
623.400	4.406	
623.500	18.076	
623.600	17.126	
623.700	3.098	
623.800	10.046	
623.900	20.626	
624.000	8.527	
624.100	6.218	
624.200	8.275	
624.300	16.344	
624.400	12.879	
624.500	12.461	
624.600	19.588	
624.700	-2.444	
624.800	14.428	
624.900	9.639	
625.000	17.673	
625.100	21.862	
625.200	21.874	
625.300	7.292	
625.400	-0.695	
625.500	27.593	
625.600	27.661	
625.700	29.029	
625.800	8.379	
625.900	18.103	
626.000	24.410	
626.100	22.815	
626.200	20.235	
626.300	16.630	
626.400	-12.280	
626.500	9.869	
626.600	16.231	
626.700	14.861	
626.800	39.250	
626.900	26.614	
627.000	14.311	
627.100	13.547	
627.200	18.846	
627.300	16.852	
627.400	31.853	
627.500	17.587	
627.600	0.928	
627.700	21.085	
627.800	6.926	
627.900	22.912	
628.000	31.333	
628.100	14.121	
628.200	10.791	
628.300	10.806	
628.400	6.683	
628.500	17.414	
628.600	7.297	
628.700	10.524	
628.800	2.467	
628.900	18.936	
629.000	16.266	
629.100	16.831	
629.200	27.368	
629.300	16.946	
629.400	16.699	
629.500	21.279	
629.600	39.292	
629.700	27.542	
629.800	32.129	
629.900	11.794	
630.000	16.186	
630.100	5.299	
630.200	4.218	
630.300	18.703	
630.400	16.564	
630.500	13.896	
630.600	31.042	
630.700	6.042	
630.800	29.336	
630.900	20.177	
631.000	17.129	
631.100	-7.624	
631.200	7.902	
631.300	3.850	
631.400	32.506	
631.500	21.941	
631.600	27.734	
631.700	40.713	
631.800	21.008	
631.900	3.346	
632.000	24.035	
632.100	35.669	
632.200	17.777	
632.300	-6.919	
632.400	35.915	
632.500	21.210	
632.600	7.567	
632.700	25.363	
632.800	-13.209	
632.900	5.032	
633.000	13.799	
633.100	18.541	
633.200	30.315	
633.300	18.855	
633.400	22.229	
633.500	9.711	
633.600	9.183	
633.700	1.308	
633.800	22.987	
633.900	14.680	
634.000	29.805	
634.100	-7.536	
634.200	17.334	
634.300	25.365	
634.400	34.072	
634.500	32.497	
634.600	14.968	
634.700	19.124	
634.800	34.563	
634.900	-2.454	
635.000	20.143	
635.100	23.287	
635.200	5.333	
635.300	5.323	
635.400	45.212	
635.500	20.410	
635.600	9.070	
635.700	6.535	
635.800	9.307	
635.900	24.096	
636.000	24.947	
636.100	35.208	
636.200	3.705	
636.300	4.397	
636.400	18.732	
636.500	13.840	
636.600	21.529	
636.700	34.569	
636.800	37.555	
636.900	17.936	
637.000	14.464	
637.100	23.909	
637.200	26.482	
637.300	27.674	
637.400	26.539	
637.500	25.588	
637.600	9.925	
637.700	27.923	
637.800	24.589	
637.900	24.122	
638.000	20.858	
638.100	2.109	
638.200	-1.625	
638.300	17.379	
638.400	0.527	
638.500	39.154	
638.600	15.095	
638.700	15.598	
638.800	5.752	
638.900	7.610	
639.000	25.173	
639.100	29.089	
639.200	38.069	
639.300	18.699	
639.400	7.094	
639.500	16.437	
639.600	28.352	
639.700	13.917	
639.800	23.376	
639.900	10.025	
640.000	25.040	
640.100	11.823	
640.200	29.570	
640.300	22.803	
640.400	5.725	
640.500	22.566	
640.600	11.544	
640.700	-8.868	
640.800	25.625	
640.900	3.513	
641.000	4.918	
641.100	32.001	
641.200	22.155	
641.300	13.889	
641.400	20.749	
641.500	21.360	
641.600	18.872	
641.700	31.108	
641.800	14.096	
641.900	27.100	
642.000	28.987	
642.100	19.438	
642.200	19.903	
642.300	1.960	
642.400	28.755	
642.500	22.249	
642.600	31.057	
642.700	11.376	
642.800	0.736	
642.900	20.160	
643.000	29.629	
643.100	-1815.543	
643.200	-612.408	
643.300	-191.132	
643.400	-75.816	
643.500	-30.449	
643.600	-15.026	
643.700	-23.971	
643.800	23.282	
643.900	-26.278	
644.000	-18.181	
644.100	3.087	
644.200	14.467	
644.300	-2.784	
644.400	13.921	
644.500	5.056	
644.600	-0.077	
644.700	2.705	
644.800	10.363	
644.900	18.500	
645.000	1.291	
645.100	-0.204	
645.200	11.340	
645.300	16.970	
645.400	7.522	
645.500	7.985	
645.600	1.026	
645.700	2.699	
645.800	-0.252	
645.900	10.450	
646.000	16.027	
646.100	21.926	
646.200	26.468	
646.300	9.104	
646.400	16.302	
646.500	15.883	
646.600	7.124	
646.700	21.025	
646.800	10.304	
646.900	9.131	
647.000	11.136	
647.100	25.793	
647.200	21.917	
647.300	22.376	
647.400	20.888	
647.500	-0.017	
647.600	23.466	
647.700	14.524	
647.800	17.769	
647.900	22.620	
648.000	28.520	
648.100	9.467	
648.200	6.600	
648.300	28.816	
648.400	14.974	
648.500	24.985	
648.600	21.020	
648.700	-3.375	
648.800	16.001	
648.900	-4.353	
649.000	15.333	
649.100	25.291	
649.200	28.373	
649.300	1.121	
649.400	11.334	
649.500	20.645	
649.600	25.979	
649.700	2.498	
649.800	10.006	
649.900	3.946	
650.000	1.926	
650.100	22.052	
650.200	27.638	
650.300	19.949	
650.400	28.127	
650.500	1.551	
650.600	-2.012	
650.700	37.324	
650.800	24.800	
650.900	9.764	
651.000	4.389	
651.100	11.778	
651.200	33.133	
651.300	15.168	
651.400	15.776	
651.500	3.095	
651.600	-6.517	
651.700	18.246	
651.800	8.600	
651.900	17.578	
652.000	20.907	
652.100	18.933	
652.200	13.035	
652.300	2.757	
652.400	22.578	
652.500	20.292	
652.600	18.825	
652.700	-5.440	
652.800	14.995	
652.900	12.312	
653.000	17.318	
653.100	19.696	
653.200	0.913	
653.300	10.089	
653.400	11.314	
653.500	29.439	
653.600	30.293	
653.700	10.040	
653.800	15.615	
653.900	26.097	
654.000	10.892	
654.100	4.049	
654.200	11.942	
654.300	28.068	
654.400	21.570	
654.500	15.077	
654.600	-6.216	
654.700	11.453	
654.800	22.999	
654.900	35.015	
655.000	23.301	
655.100	28.438	
655.200	-8.243	
655.300	9.530	
655.400	21.682	
655.500	11.890	
655.600	9.568	
655.700	5.742	
655.800	18.608	
655.900	6.304	
656.000	12.665	
656.100	19.802	
656.200	15.465	
656.300	14.747	
656.400	13.774	
656.500	16.724	
656.600	20.090	
656.700	-1.440	
656.800	27.877	
656.900	-4.101	
657.000	12.874	
657.100	28.500	
657.200	17.454	
657.300	8.825	
657.400	5.880	
657.500	12.191	
657.600	18.241	
657.700	16.019	
657.800	38.322	
657.900	10.221	
658.000	14.300	
658.100	7.590	
658.200	9.738	
658.300	26.280	
658.400	19.819	
658.500	8.284	
658.600	-1.431	
658.700	-12.450	
658.800	21.960	
658.900	2.100	
659.000	0.466	
659.100	33.283	
659.200	-6.682	
659.300	9.075	
659.400	7.157	
659.500	24.647	
659.600	38.561	
659.700	29.873	
659.800	14.502	
659.900	-0.355	
660.000	22.773	
660.100	21.592	
660.200	22.030	
660.300	28.017	
660.400	-3.871	
660.500	-1.069	
660.600	25.539	
660.700	2.442	
660.800	24.989	
660.900	8.156	
661.000	21.206	
661.100	27.675	
661.200	29.980	
661.300	25.853	
661.400	24.898	
661.500	8.154	
661.600	10.298	
661.700	16.551	
661.800	7.768	
661.900	28.312	
662.000	10.783	
662.100	16.872	
662.200	2.758	
662.300	6.471	
662.400	24.843	
662.500	26.679	
662.600	21.509	
662.700	11.212	
662.800	5.646	
662.900	4.394	
663.000	11.331	
663.100	22.820	
663.200	26.053	
663.300	12.566	
663.400	5.906	
663.500	21.306	
663.600	23.343	
663.700	9.702	
663.800	9.176	
663.900	6.559	
664.000	9.171	
664.100	13.302	
664.200	10.696	
664.300	15.693	
664.400	19.716	
664.500	1.856	
664.600	22.310	
664.700	30.014	
664.800	2.761	
664.900	23.833	
665.000	13.152	
665.100	11.808	
665.200	10.074	
665.300	15.935	
665.400	6.347	
665.500	4.041	
665.600	13.903	
665.700	4.220	
665.800	26.982	
665.900	8.995	
666.000	23.916	
666.100	23.436	
666.200	18.205	
666.300	14.318	
666.400	17.472	
666.500	31.316	
666.600	9.318	
666.700	11.374	
666.800	10.345	
666.900	7.630	
667.000	29.077	
667.100	27.517	
667.200	11.670	
667.300	14.413	
667.400	-3.558	
667.500	12.649	
667.600	11.343	
667.700	5.198	
667.800	17.033	
667.900	-1.360	
668.000	15.115	
668.100	17.055	
668.200	31.415	
668.300	25.672	
668.400	21.522	
668.500	2.101	
668.600	-26.893	
668.700	8.658	
668.800	18.396	
668.900	28.454	
669.000	19.353	
669.100	-1.793	
669.200	14.134	
669.300	6.656	
669.400	20.809	
669.500	6.492	
669.600	35.737	
669.700	12.626	
669.800	27.245	
669.900	13.086	
670.000	23.510	
670.100	17.612	
670.200	0.195	
670.300	7.946	
670.400	15.950	
670.500	6.447	
670.600	3.300	
670.700	30.827	
670.800	-4.371	
670.900	2.672	
671.000	16.443	
671.100	13.705	
671.200	27.569	
671.300	14.081	
671.400	11.359	
671.500	3.784	
671.600	7.498	
671.700	9.151	
671.800	12.001	
671.900	25.933	
672.000	5.839	
672.100	-9.517	
672.200	3.666	
672.300	20.514	
672.400	32.255	
672.500	3.513	
672.600	17.128	
672.700	8.427	
672.800	19.983	
672.900	17.182	
673.000	18.325	
673.100	18.371	
673.200	10.538	
673.300	1.343	
673.400	-18.131	
673.500	24.481	
673.600	-9.096	
673.700	3.311	
673.800	10.006	
673.900	-0.365	
674.000	6.853	
674.100	11.082	
674.200	11.536	
674.300	15.980	
674.400	15.197	
674.500	17.565	
674.600	21.735	
674.700	-2.643	
674.800	16.746	
674.900	0.910	
675.000	18.065	
675.100	10.100	
675.200	27.311	
675.300	28.096	
675.400	28.234	
675.500	6.454	
675.600	5.704	
675.700	12.727	
675.800	29.322	
675.900	28.446	
676.000	21.412	
676.100	3.659	
676.200	-8.230	
676.300	19.934	
676.400	7.830	
676.500	12.333	
676.600	-1.371	
676.700	19.477	
676.800	-10.608	
676.900	33.771	
677.000	12.813	
677.100	15.162	
677.200	20.877	
677.300	-3.855	
677.400	10.443	
677.500	-2.247	
677.600	25.340	
677.700	4.616	
677.800	-4.088	
677.900	21.853	
678.000	-6.791	
678.100	22.215	
678.200	40.820	
678.300	8.962	
678.400	4.858	
678.500	3.831	
678.600	6.639	
678.700	19.170	
678.800	16.001	
678.900	15.173	
679.000	7.436	
679.100	11.152	
679.200	-5.729	
679.300	20.831	
679.400	25.685	
679.500	25.155	
679.600	4.599	
679.700	4.952	
679.800	4.084	
679.900	7.154	
680.000	13.723	
680.100	2.667	
680.200	12.143	
680.300	10.757	
680.400	1.666	
680.500	8.919	
680.600	10.357	
680.700	3.966	
680.800	3.537	
680.900	7.605	
681.000	2.882	
681.100	19.576	
681.200	12.686	
681.300	20.910	
681.400	-9.633	
681.500	-2.277	
681.600	23.349	
681.700	2.467	
681.800	11.204	
681.900	11.369	
682.000	3.803	
682.100	4.364	
682.200	15.603	
682.300	5.958	
682.400	21.266	
682.500	22.752	
682.600	2.920	
682.700	7.111	
682.800	21.925	
682.900	26.007	
683.000	-7.595	
683.100	18.194	
683.200	-1.810	
683.300	25.993	
683.400	4.730	
683.500	16.943	
683.600	19.315	
683.700	14.848	
683.800	-4.245	
683.900	19.129	
684.000	14.381	
684.100	19.613	
684.200	-4.498	
684.300	0.665	
684.400	26.217	
684.500	21.236	
684.600	0.810	
684.700	9.450	
684.800	17.338	
684.900	8.189	
685.000	24.322	
685.100	14.582	
685.200	5.152	
685.300	9.288	
685.400	5.905	
685.500	19.368	
685.600	3.434	
685.700	54.040	
685.800	34.928	
685.900	23.222	
686.000	-1.152	
686.100	20.682	
686.200	11.460	
686.300	13.894	
686.400	26.434	
686.500	-0.816	
686.600	17.301	
686.700	5.162	
686.800	9.542	
686.900	36.080	
687.000	12.326	
687.100	20.480	
687.200	0.994	
687.300	5.896	
687.400	7.332	
687.500	36.377	
687.600	9.360	
687.700	6.416	
687.800	2.679	
687.900	15.367	
688.000	25.245	
688.100	2.218	
688.200	28.646	
688.300	9.634	
688.400	26.836	
688.500	15.971	
688.600	19.795	
688.700	29.468	
688.800	0.227	
688.900	18.147	
689.000	18.480	
689.100	18.056	
689.200	3.503	
689.300	32.862	
689.400	31.471	
689.500	-1.547	
689.600	16.005	
689.700	12.429	
689.800	7.831	
689.900	21.689	
690.000	4.369	
690.100	14.690	
690.200	12.879	
690.300	23.745	
690.400	18.142	
690.500	12.183	
690.600	22.931	
690.700	14.060	
690.800	16.924	
690.900	24.406	
691.000	13.898	
691.100	17.716	
691.200	13.761	
691.300	10.273	
691.400	13.801	
691.500	25.986	
691.600	19.703	
691.700	23.858	
691.800	9.544	
691.900	18.086	
692.000	30.527	
692.100	3.452	
692.200	16.911	
692.300	26.865	
692.400	18.239	
692.500	14.763	
692.600	12.038	
692.700	12.630	
692.800	34.239	
692.900	18.498	
693.000	1.833	
693.100	23.125	
693.200	17.873	
693.300	35.685	
693.400	35.223	
693.500	14.191	
693.600	15.803	
693.700	14.453	
693.800	12.014	
693.900	23.500	
694.000	36.110	
694.100	5.254	
694.200	17.995	
694.300	7.918	
694.400	14.171	
694.500	22.201	
694.600	29.744	
694.700	12.351	
694.800	15.023	
694.900	13.048	
695.000	28.900	
695.100	26.488	
695.200	17.438	
695.300	7.689	
695.400	13.132	
695.500	24.508	
695.600	9.272	
695.700	23.773	
695.800	-11.907	
695.900	29.079	
696.000	3.698	
696.100	-7.125	
696.200	3.058	
696.300	28.999	
696.400	25.174	
696.500	16.768	
696.600	-0.993	
696.700	18.647	
696.800	24.335	
696.900	25.952	
697.000	7.425	
697.100	4.265	
697.200	4.458	
697.300	-2.237	
697.400	20.727	
697.500	31.505	
697.600	17.701	
697.700	-3.368	
697.800	12.375	
697.900	7.095	
698.000	2.587	
698.100	27.814	
698.200	-7.432	
698.300	7.403	
698.400	13.149	
698.500	6.737	
698.600	25.018	
698.700	21.957	
698.800	5.088	
698.900	13.473	
699.000	5.067	
699.100	24.529	
699.200	13.271	
699.300	34.917	
699.400	17.727	
699.500	3.666	
699.600	11.043	
699.700	6.488	
699.800	19.614	
699.900	0.130	
700.000	28.865	
700.100	18.739	
700.200	14.310	
700.300	7.171	
700.400	19.548	
700.500	20.673	
700.600	2.748	
700.700	10.176	
700.800	20.833	
700.900	27.881	
701.000	20.047	
701.100	23.258	
701.200	9.591	
701.300	6.683	
701.400	4.158	
701.500	8.454	
701.600	9.093	
701.700	27.632	
701.800	2.981	
701.900	2.343	
702.000	12.489	
702.100	18.258	
702.200	13.125	
702.300	1.023	
702.400	17.486	
702.500	1.044	
702.600	15.773	
702.700	19.659	
702.800	14.139	
702.900	17.720	
703.000	-4.839	
703.100	9.536	
703.200	11.766	
703.300	18.874	
703.400	8.558	
703.500	5.911	
703.600	-1.721	
703.700	0.978	
703.800	31.188	
703.900	11.029	
704.000	12.702	
704.100	-1.947	
704.200	20.107	
704.300	23.448	
704.400	15.094	
704.500	11.476	
704.600	2.094	
704.700	-8.507	
704.800	5.796	
704.900	1.996	
705.000	0.831	
705.100	39.517	
705.200	9.726	
705.300	-17.033	
705.400	14.329	
705.500	-1.349	
705.600	21.176	
705.700	25.322	
705.800	1.349	
705.900	-1.360	
706.000	13.625	
706.100	12.686	
706.200	14.866	
706.300	5.858	
706.400	14.862	
706.500	25.468	
706.600	4.071	
706.700	14.501	
706.800	26.625	
706.900	-4.549	
707.000	20.804	
707.100	9.860	
707.200	-5.149	
707.300	10.842	
707.400	6.496	
707.500	7.190	
707.600	-16.391	
707.700	19.007	
707.800	16.767	
707.900	16.976	
708.000	28.392	
708.100	27.467	
708.200	4.597	
708.300	-3.617	
708.400	2.939	
708.500	12.932	
708.600	6.095	
708.700	13.953	
708.800	3.283	
708.900	0.929	
709.000	16.785	
709.100	-2.220	
709.200	27.782	
709.300	2.637	
709.400	0.636	
709.500	8.058	
709.600	17.306	
709.700	0.405	
709.800	-0.190	
709.900	7.421	
710.000	28.662	
710.100	10.625	
710.200	7.572	
710.300	28.710	
710.400	11.492	
710.500	4.378	
710.600	-6.892	
710.700	3.511	
710.800	30.783	
710.900	12.046	
711.000	5.938	
711.100	1.292	
711.200	1.623	
711.300	-9.107	
711.400	20.967	
711.500	24.555	
711.600	7.217	
711.700	22.001	
711.800	-2.551	
711.900	-5.869	
712.000	21.747	
712.100	14.948	
712.200	14.899	
712.300	-2.399	
712.400	-0.228	
712.500	-8.073	
712.600	14.660	
712.700	31.023	
712.800	3.232	
712.900	4.745	
713.000	-18.639	
713.100	9.588	
713.200	38.301	
713.300	16.053	
713.400	14.893	
713.500	17.465	
713.600	4.685	
713.700	-3.828	
713.800	19.358	
713.900	15.104	
714.000	-9.916	
714.100	-5.941	
714.200	13.956	
714.300	23.098	
714.400	19.135	
714.500	6.978	
714.600	1.544	
714.700	6.030	
714.800	11.696	
714.900	16.495	
715.000	15.400	
715.100	-5.885	
715.200	13.722	
715.300	9.443	
715.400	4.263	
715.500	-1.552	
715.600	9.858	
715.700	9.724	
715.800	23.635	
715.900	14.527	
716.000	13.958	
716.100	15.360	
716.200	10.082	
716.300	16.447	
716.400	-8.138	
716.500	15.763	
716.600	17.510	
716.700	-9.705	
716.800	5.271	
716.900	10.067	
717.000	8.230	
717.100	11.468	
717.200	18.021	
717.300	25.619	
717.400	10.275	
717.500	24.935	
717.600	17.364	
717.700	0.334	
717.800	13.389	
717.900	12.203	
718.000	13.053	
718.100	18.570	
718.200	-21.630	
718.300	4.368	
718.400	15.894	
718.500	17.804	
718.600	16.704	
718.700	15.767	
718.800	-3.418	
718.900	21.119	
719.000	18.415	
719.100	2.016	
719.200	7.360	
719.300	2.258	
719.400	2.584	
719.500	26.812	
719.600	9.996	
719.700	21.406	
719.800	10.040	
719.900	-2.307	
720.000	-21.247	
720.100	7.367	
720.200	26.208	
720.300	11.398	
720.400	8.005	
720.500	14.790	
720.600	-2.910	
720.700	21.292	
720.800	10.714	
720.900	2.454	
721.000	17.575	
721.100	8.795	
721.200	-0.468	
721.300	19.386	
721.400	8.913	
721.500	10.392	
721.600	8.345	
721.700	3.814	
721.800	5.556	
721.900	11.265	
722.000	5.551	
722.100	3.256	
722.200	9.900	
722.300	-5.530	
722.400	5.978	
722.500	1.705	
722.600	9.576	
722.700	18.633	
722.800	18.890	
722.900	-2.526	
723.000	12.687	
723.100	4.009	
723.200	17.777	
723.300	13.244	
723.400	4.512	
723.500	5.508	
723.600	6.209	
723.700	20.548	
723.800	4.273	
723.900	1.223	
724.000	1.495	
724.100	4.408	
724.200	13.848	
724.300	25.747	
724.400	4.790	
724.500	4.233	
724.600	1.037	
724.700	19.135	
724.800	23.256	
724.900	-0.287	
725.000	3.319	
725.100	8.023	
725.200	-4.438	
725.300	12.744	
725.400	12.092	
725.500	16.812	
725.600	19.102	
725.700	1.768	
725.800	9.042	
725.900	5.781	
726.000	-0.523	
726.100	-12.701	
726.200	32.972	
726.300	7.649	
726.400	7.347	
726.500	23.701	
726.600	-7.331	
726.700	-3.007	
726.800	6.689	
726.900	14.707	
727.000	-1.900	
727.100	15.924	
727.200	4.901	
727.300	25.277	
727.400	0.090	
727.500	-10.757	
727.600	24.221	
727.700	18.460	
727.800	9.483	
727.900	19.372	
728.000	12.909	
728.100	-3.382	
728.200	9.237	
728.300	7.504	
728.400	18.624	
728.500	37.235	
728.600	-0.073	
728.700	17.506	
728.800	5.419	
728.900	17.791	
729.000	35.156	
729.100	15.581	
729.200	11.691	
729.300	2.465	
729.400	5.157	
729.500	18.883	
729.600	15.943	
729.700	15.928	
729.800	10.187	
729.900	20.345	
730.000	16.307	
730.100	-4.663	
730.200	13.610	
730.300	16.487	
730.400	-16.194	
730.500	21.743	
730.600	20.438	
730.700	21.615	
730.800	20.922	
730.900	2.159	
731.000	5.020	
731.100	3.040	
731.200	12.698	
731.300	17.079	
731.400	14.111	
731.500	10.996	
731.600	-1.620	
731.700	-4.727	
731.800	12.888	
731.900	3.083	
732.000	29.019	
732.100	1.013	
732.200	7.216	
732.300	18.940	
732.400	5.403	
732.500	17.012	
732.600	15.266	
732.700	25.408	
732.800	-12.812	
732.900	8.713	
733.000	33.668	
733.100	15.550	
733.200	32.955	
733.300	21.376	
733.400	5.576	
733.500	9.480	
733.600	8.053	
733.700	23.775	
733.800	19.721	
733.900	-14.621	
734.000	14.673	
734.100	12.813	
734.200	22.336	
734.300	11.296	
734.400	16.538	
734.500	2.227	
734.600	10.259	
734.700	14.991	
734.800	20.336	
734.900	10.511	
735.000	24.699	
735.100	19.308	
735.200	3.076	
735.300	22.814	
735.400	9.723	
735.500	21.099	
735.600	8.951	
735.700	16.303	
735.800	3.558	
735.900	4.906	
736.000	0.847	
736.100	33.766	
736.200	19.466	
736.300	3.699	
736.400	17.923	
736.500	3.796	
736.600	4.358	
736.700	31.381	
736.800	12.813	
736.900	-12.788	
737.000	10.988	
737.100	25.620	
737.200	34.060	
737.300	-6.995	
737.400	19.333	
737.500	4.401	
737.600	5.806	
737.700	18.366	
737.800	6.509	
737.900	-4.061	
738.000	23.456	
738.100	11.791	
738.200	-7.276	
738.300	15.840	
738.400	21.141	
738.500	8.313	
738.600	11.455	
738.700	2.791	
738.800	17.496	
738.900	-0.198	
739.000	27.717	
739.100	5.621	
739.200	8.688	
739.300	18.699	
739.400	1.978	
739.500	17.695	
739.600	4.615	
739.700	-8.278	
739.800	15.234	
739.900	9.202	
740.000	15.540	
740.100	12.026	
740.200	14.751	
740.300	-12.395	
740.400	17.386	
740.500	14.892	
740.600	0.193	
740.700	23.815	
740.800	5.822	
740.900	-0.066	
741.000	16.361	
741.100	8.129	
741.200	19.989	
741.300	8.324	
741.400	6.203	
741.500	10.831	
741.600	2.437	
741.700	8.882	
741.800	11.676	
741.900	11.123	
742.000	5.993	
742.100	18.412	
742.200	8.816	
742.300	19.544	
742.400	7.359	
742.500	8.848	
742.600	4.804	
742.700	4.099	
742.800	6.665	
742.900	5.556	
743.000	16.472	
743.100	19.538	
743.200	4.850	
743.300	12.377	
743.400	12.633	
743.500	-1.756	
743.600	8.732	
743.700	5.198	
743.800	8.653	
743.900	-10.507	
744.000	8.315	
744.100	14.060	
744.200	-2.061	
744.300	-4.858	
744.400	23.998	
744.500	20.263	
744.600	16.837	
744.700	5.235	
744.800	11.741	
744.900	8.873	
745.000	4.527	
745.100	15.257	
745.200	-6.014	
745.300	24.135	
745.400	20.383	
745.500	-1.129	
745.600	15.170	
745.700	9.120	
745.800	17.949	
745.900	13.439	
746.000	10.020	
746.100	14.322	
746.200	-12.135	
746.300	-12.602	
746.400	7.096	
746.500	13.012	
746.600	14.302	
746.700	24.892	
746.800	12.587	
746.900	3.086	
747.000	10.918	
747.100	11.071	
747.200	17.566	
747.300	15.132	
747.400	-4.494	
747.500	7.938	
747.600	-6.740	
747.700	21.624	
747.800	21.259	
747.900	7.069	
748.000	4.430	
748.100	14.578	
748.200	4.315	
748.300	4.527	
748.400	7.264	
748.500	11.553	
748.600	19.692	
748.700	16.169	
748.800	19.282	
748.900	4.904	
749.000	18.484	
749.100	-16.998	
749.200	12.517	
749.300	-8.795	
749.400	11.491	
749.500	11.987	
749.600	11.262	
749.700	13.720	
749.800	-1.857	
749.900	10.692	
750.000	6.495	
750.100	15.047	
750.200	12.514	
750.300	1.526	
750.400	-2.445	
750.500	6.918	
750.600	24.498	
750.700	10.970	
750.800	1.927	
750.900	8.493	
751.000	-19.866	
751.100	-18.126	
751.200	8.228	
751.300	7.898	
751.400	15.286	
751.500	21.541	
751.600	4.949	
751.700	0.575	
751.800	2.063	
751.900	24.230	
752.000	20.809	
752.100	7.176	
752.200	3.367	
752.300	18.363	
752.400	13.327	
752.500	8.853	
752.600	11.878	
752.700	-3.323	
752.800	4.711	
752.900	15.303	
753.000	1.865	
753.100	8.150	
753.200	12.523	
753.300	10.855	
753.400	1.773	
753.500	4.902	
753.600	0.005	
753.700	11.679	
753.800	0.765	
753.900	-3.740	
754.000	19.941	
754.100	20.310	
754.200	15.212	
754.300	15.394	
754.400	-13.874	
754.500	1.580	
754.600	3.926	
754.700	25.097	
754.800	5.644	
754.900	16.020	
755.000	-1.750	
755.100	-0.328	
755.200	8.225	
755.300	9.220	
755.400	16.677	
755.500	11.625	
755.600	6.814	
755.700	2.499	
755.800	14.946	
755.900	-7.068	
756.000	14.663	
756.100	-9.492	
756.200	23.328	
756.300	-5.762	
756.400	-8.125	
756.500	20.544	
756.600	20.357	
756.700	-0.413	
756.800	7.016	
756.900	6.706	
757.000	20.898	
757.100	10.427	
757.200	3.350	
757.300	-6.401	
757.400	1.589	
757.500	11.086	
757.600	8.117	
757.700	6.617	
757.800	9.378	
757.900	6.947	
758.000	-10.419	
758.100	30.727	
758.200	4.617	
758.300	-7.001	
758.400	18.418	
758.500	0.896	
758.600	9.346	
758.700	21.319	
758.800	4.066	
758.900	5.949	
759.000	9.483	
759.100	12.054	
759.200	-1.408	
759.300	7.719	
759.400	-3.163	
759.500	-2.458	
759.600	13.838	
759.700	-12.494	
759.800	4.773	
759.900	23.330	
760.000	23.936	
760.100	5.984	
760.200	24.272	
760.300	-2.674	
760.400	22.145	
760.500	-2.291	
760.600	8.030	
760.700	2.241	
760.800	39.778	
760.900	-18.356	
761.000	21.563	
761.100	17.602	
761.200	38.734	
761.300	16.526	
761.400	1.692	
761.500	20.936	
761.600	9.721	
761.700	14.716	
761.800	16.275	
761.900	6.070	
762.000	5.087	
762.100	14.391	
762.200	13.389	
762.300	-7.601	
762.400	19.432	
762.500	5.542	
762.600	7.484	
762.700	14.449	
762.800	0.025	
762.900	-8.462	
763.000	5.441	
763.100	9.491	
763.200	14.718	
763.300	5.741	
763.400	11.498	
763.500	20.178	
763.600	6.635	
763.700	22.744	
763.800	-7.210	
763.900	1.496	
764.000	31.731	
764.100	15.091	
764.200	6.422	
764.300	0.368	
764.400	3.061	
764.500	-3.595	
764.600	12.106	
764.700	4.231	
764.800	6.883	
764.900	18.663	
765.000	8.137	
765.100	11.284	
765.200	28.098	
765.300	3.971	
765.400	8.976	
765.500	-2.096	
765.600	9.596	
765.700	-9.204	
765.800	21.390	
765.900	1.914	
766.000	14.362	
766.100	18.420	
766.200	-3.423	
766.300	19.857	
766.400	12.855	
766.500	11.459	
766.600	9.571	
766.700	2.323	
766.800	22.329	
766.900	16.530	
767.000	8.336	
767.100	7.431	
767.200	19.371	
767.300	-5.502	
767.400	3.804	
767.500	35.012	
767.600	21.964	
767.700	12.363	
767.800	-1.395	
767.900	5.936	
768.000	16.934	
768.100	13.432	
768.200	12.772	
768.300	17.874	
768.400	-9.329	
768.500	18.025	
768.600	0.823	
768.700	13.211	
768.800	5.363	
768.900	14.084	
769.000	1.360	
769.100	24.131	
769.200	9.241	
769.300	20.783	
769.400	24.789	
769.500	13.398	
769.600	9.524	
769.700	4.325	
769.800	3.220	
769.900	7.100	
770.000	13.056	
770.100	14.706	
770.200	4.307	
770.300	16.140	
770.400	15.024	
770.500	11.475	
770.600	16.407	
770.700	11.614	
770.800	0.497	
770.900	11.335	
771.000	12.129	
771.100	7.162	
771.200	0.222	
771.300	11.435	
771.400	20.736	
771.500	13.347	
771.600	15.817	
771.700	6.528	
771.800	14.427	
771.900	7.367	
772.000	21.575	
772.100	8.635	
772.200	17.506	
772.300	23.501	
772.400	6.697	
772.500	18.816	
772.600	11.350	
772.700	5.735	
772.800	30.230	
772.900	23.458	
773.000	1.711	
773.100	-6.106	
773.200	1.169	
773.300	12.437	
773.400	5.354	
773.500	25.340	
773.600	26.092	
773.700	7.008	
773.800	9.053	
773.900	13.266	
774.000	24.214	
774.100	-0.587	
774.200	19.043	
774.300	15.309	
774.400	8.831	
774.500	20.957	
774.600	24.675	
774.700	16.554	
774.800	-18.357	
774.900	4.995	
775.000	2.595	
775.100	8.146	
775.200	29.483	
775.300	0.275	
775.400	-8.987	
775.500	14.084	
775.600	13.014	
775.700	19.907	
775.800	16.963	
775.900	13.683	
776.000	6.467	
776.100	15.114	
776.200	17.798	
776.300	17.415	
776.400	16.083	
776.500	24.894	
776.600	19.079	
776.700	0.195	
776.800	5.778	
776.900	36.844	
777.000	21.540	
777.100	9.565	
777.200	14.992	
777.300	4.804	
777.400	13.177	
777.500	22.728	
777.600	6.494	
777.700	26.484	
777.800	24.157	
777.900	-0.110	
778.000	19.470	
778.100	21.824	
778.200	26.775	
778.300	9.651	
778.400	5.611	
778.500	20.005	
778.600	4.905	
778.700	3.983	
778.800	9.832	
778.900	3.159	
779.000	1.821	
779.100	21.705	
779.200	14.833	
779.300	30.755	
779.400	25.475	
779.500	8.305	
779.600	6.407	
779.700	23.861	
779.800	16.753	
779.900	3.220	
780.000	25.784	
780.100	9.001	
780.200	9.384	
780.300	19.355	
780.400	5.863	
780.500	19.519	
780.600	15.769	
780.700	-4.885	
780.800	-14.784	
780.900	15.798	
781.000	14.026	
781.100	20.371	
781.200	24.469	
781.300	19.766	
781.400	-4.266	
781.500	11.726	
781.600	6.125	
781.700	23.539	
781.800	10.770	
781.900	7.710	
782.000	4.739	
782.100	18.016	
782.200	20.343	
782.300	24.640	
782.400	13.354	
782.500	12.793	
782.600	17.125	
782.700	14.432	
782.800	20.821	
782.900	14.407	
783.000	7.299	
783.100	10.735	
783.200	14.896	
783.300	8.735	
783.400	10.404	
783.500	11.719	
783.600	17.926	
783.700	25.163	
783.800	-0.005	
783.900	28.790	
784.000	19.505	
784.100	19.563	
784.200	-2.122	
784.300	22.273	
784.400	5.064	
784.500	10.481	
784.600	15.630	
784.700	10.949	
784.800	16.049	
784.900	27.344	
785.000	15.206	
785.100	29.189	
785.200	22.454	
785.300	12.461	
785.400	12.809	
785.500	9.405	
785.600	25.884	
785.700	18.733	
785.800	18.494	
785.900	5.009	
786.000	12.552	
786.100	6.991	
786.200	14.365	
786.300	15.068	
786.400	39.158	
786.500	8.962	
786.600	17.510	
786.700	6.957	
786.800	22.111	
786.900	12.971	
787.000	16.725	
787.100	25.297	
787.200	-15.082	
787.300	20.355	
787.400	33.018	
787.500	31.715	
787.600	17.796	
787.700	19.532	
787.800	14.251	
787.900	7.760	
788.000	7.895	
788.100	22.392	
788.200	17.012	
788.300	-2.553	
788.400	18.396	
788.500	5.730	
788.600	8.894	
788.700	25.787	
788.800	14.917	
788.900	17.755	
789.000	16.782	
789.100	10.598	
789.200	15.874	
789.300	26.498	
789.400	13.518	
789.500	12.671	
789.600	22.989	
789.700	12.122	
789.800	8.771	
789.900	17.444	
790.000	15.427	
790.100	19.739	
790.200	13.100	
790.300	16.629	
790.400	21.881	
790.500	31.607	
790.600	12.980	
790.700	10.402	
790.800	13.557	
790.900	10.055	
791.000	11.684	
791.100	7.970	
791.200	9.115	
791.300	-14.730	
791.400	30.546	
791.500	16.861	
791.600	28.970	
791.700	2.407	
791.800	1.192	
791.900	16.933	
792.000	8.214	
792.100	35.372	
792.200	13.364	
792.300	31.276	
792.400	10.280	
792.500	-0.209	
792.600	20.792	
792.700	18.724	
792.800	8.824	
792.900	6.648	
793.000	9.470	
793.100	-12.221	
793.200	23.072	
793.300	32.985	
793.400	16.276	
793.500	24.176	
793.600	-6.243	
793.700	14.037	
793.800	14.067	
793.900	20.573	
794.000	-2.774	
794.100	7.573	
794.200	-6.634	
794.300	7.537	
794.400	27.066	
794.500	30.587	
794.600	13.157	
794.700	25.753	
794.800	14.310	
794.900	19.341	
795.000	11.048	
795.100	12.380	
795.200	6.725	
795.300	10.478	
795.400	18.311	
795.500	5.692	
795.600	25.545	
795.700	21.956	
795.800	1.752	
795.900	13.956	
796.000	24.680	
796.100	-4.160	
796.200	24.901	
796.300	33.034	
796.400	21.367	
796.500	-10.925	
796.600	21.432	
796.700	-3.869	
796.800	16.382	
796.900	19.354	
797.000	21.412	
797.100	3.296	
797.200	-8.844	
797.300	26.729	
797.400	20.847	
797.500	15.093	
797.600	3.178	
797.700	12.877	
797.800	10.209	
797.900	5.883	
798.000	35.736	
798.100	20.845	
798.200	5.417	
798.300	0.533	
798.400	9.613	
798.500	8.513	
798.600	17.436	
798.700	3.512	
798.800	16.505	
798.900	-3.160	
799.000	7.136	
799.100	9.647	
799.200	22.099	
799.300	11.729	
799.400	13.155	
799.500	5.633	
799.600	-0.405	
799.700	21.085	
799.800	16.946	
799.900	4.803	
800.000	7.172	
