time /s	I /nA	
0.100	60.400	
0.200	17.525	
0.300	31.298	
0.400	30.607	
0.500	35.267	
0.600	11.527	
0.700	29.454	
0.800	23.704	
0.900	16.378	
1.000	18.242	
1.100	29.632	
1.200	12.684	
1.300	36.012	
1.400	20.716	
1.500	31.852	
1.600	1.860	
1.700	32.046	
1.800	17.165	
1.900	10.066	
2.000	48.575	
2.100	28.341	
2.200	12.870	
2.300	19.480	
2.400	31.410	
2.500	21.967	
2.600	14.916	
2.700	37.740	
2.800	27.172	
2.900	17.568	
3.000	20.726	
3.100	7.966	
3.200	37.278	
3.300	32.321	
3.400	17.720	
3.500	32.749	
3.600	15.752	
3.700	13.134	
3.800	16.878	
3.900	32.313	
4.000	19.381	
4.100	30.207	
4.200	25.793	
4.300	32.675	
4.400	20.012	
4.500	28.326	
4.600	20.558	
4.700	22.145	
4.800	39.563	
4.900	34.433	
5.000	34.184	
5.100	18.386	
5.200	25.670	
5.300	20.710	
5.400	19.487	
5.500	19.383	
5.600	28.861	
5.700	22.197	
5.800	8.388	
5.900	19.982	
6.000	38.590	
6.100	18.034	
6.200	32.337	
6.300	25.666	
6.400	21.046	
6.500	30.439	
6.600	28.535	
6.700	16.863	
6.800	34.077	
6.900	37.069	
7.000	30.904	
7.100	14.243	
7.200	38.830	
7.300	24.674	
7.400	23.920	
7.500	38.433	
7.600	5.180	
7.700	38.181	
7.800	17.661	
7.900	24.767	
8.000	19.660	
8.100	32.447	
8.200	36.739	
8.300	25.514	
8.400	25.583	
8.500	16.518	
8.600	33.472	
8.700	42.165	
8.800	23.140	
8.900	35.461	
9.000	26.309	
9.100	26.841	
9.200	21.944	
9.300	30.375	
9.400	22.769	
9.500	30.987	
9.600	21.181	
9.700	33.431	
9.800	17.112	
9.900	33.841	
10.000	36.995	
10.100	31.295	
10.200	43.573	
10.300	28.213	
10.400	21.010	
10.500	26.440	
10.600	31.753	
10.700	25.263	
10.800	32.195	
10.900	57.427	
11.000	17.974	
11.100	19.982	
11.200	22.504	
11.300	44.856	
11.400	31.183	
11.500	23.329	
11.600	24.195	
11.700	33.836	
11.800	42.965	
11.900	29.753	
12.000	23.428	
12.100	35.415	
12.200	34.387	
12.300	12.948	
12.400	42.361	
12.500	33.956	
12.600	49.573	
12.700	19.052	
12.800	19.225	
12.900	32.471	
13.000	30.611	
13.100	30.557	
13.200	31.483	
13.300	22.312	
13.400	23.768	
13.500	31.886	
13.600	34.795	
13.700	21.107	
13.800	45.215	
13.900	43.994	
14.000	28.218	
14.100	12.421	
14.200	17.232	
14.300	27.201	
14.400	31.344	
14.500	35.836	
14.600	35.842	
14.700	23.317	
14.800	40.435	
14.900	28.057	
15.000	34.064	
15.100	16.703	
15.200	27.613	
15.300	29.632	
15.400	30.342	
15.500	34.000	
15.600	42.939	
15.700	40.601	
15.800	15.151	
15.900	32.353	
16.000	29.595	
16.100	30.691	
16.200	38.385	
16.300	22.964	
16.400	33.718	
16.500	26.366	
16.600	22.091	
16.700	28.263	
16.800	5.152	
16.900	9.120	
17.000	33.788	
17.100	34.506	
17.200	22.954	
17.300	16.147	
17.400	16.426	
17.500	8.006	
17.600	27.237	
17.700	38.478	
17.800	16.982	
17.900	21.347	
18.000	42.711	
18.100	27.126	
18.200	36.628	
18.300	17.718	
18.400	20.970	
18.500	28.776	
18.600	23.251	
18.700	11.228	
18.800	18.003	
18.900	29.335	
19.000	15.890	
19.100	36.009	
19.200	26.162	
19.300	29.259	
19.400	33.027	
19.500	24.264	
19.600	26.716	
19.700	22.764	
19.800	26.262	
19.900	29.087	
20.000	33.721	
20.100	22.438	
20.200	23.536	
20.300	22.080	
20.400	9.782	
20.500	25.633	
20.600	24.398	
20.700	32.179	
20.800	33.834	
20.900	20.697	
21.000	16.229	
21.100	13.981	
21.200	35.778	
21.300	30.575	
21.400	24.445	
21.500	36.927	
21.600	16.927	
21.700	23.868	
21.800	18.843	
21.900	27.876	
22.000	25.484	
22.100	38.585	
22.200	13.280	
22.300	15.660	
22.400	26.417	
22.500	31.643	
22.600	29.919	
22.700	44.115	
22.800	30.112	
22.900	12.176	
23.000	39.048	
23.100	23.398	
23.200	25.148	
23.300	-2.372	
23.400	27.972	
23.500	21.980	
23.600	22.607	
23.700	24.859	
23.800	32.308	
23.900	23.661	
24.000	33.825	
24.100	28.717	
24.200	29.763	
24.300	16.394	
24.400	26.791	
24.500	17.588	
24.600	24.460	
24.700	20.378	
24.800	4.523	
24.900	19.138	
25.000	18.146	
25.100	21.622	
25.200	24.635	
25.300	23.975	
25.400	43.061	
25.500	19.887	
25.600	26.110	
25.700	16.576	
25.800	24.307	
25.900	23.848	
26.000	16.115	
26.100	25.858	
26.200	9.980	
26.300	32.799	
26.400	39.462	
26.500	11.897	
26.600	20.287	
26.700	28.927	
26.800	20.417	
26.900	7.451	
27.000	30.099	
27.100	30.523	
27.200	16.412	
27.300	6.718	
27.400	14.315	
27.500	17.839	
27.600	13.728	
27.700	14.213	
27.800	22.743	
27.900	34.612	
28.000	31.744	
28.100	29.644	
28.200	27.312	
28.300	35.492	
28.400	24.881	
28.500	16.012	
28.600	7.410	
28.700	29.759	
28.800	22.131	
28.900	22.785	
29.000	27.787	
29.100	17.843	
29.200	13.719	
29.300	16.299	
29.400	25.392	
29.500	10.898	
29.600	20.614	
29.700	32.555	
29.800	22.195	
29.900	20.825	
30.000	22.555	
30.100	35.099	
30.200	21.716	
30.300	42.926	
30.400	10.549	
30.500	24.711	
30.600	48.755	
30.700	26.774	
30.800	20.047	
30.900	8.606	
31.000	33.431	
31.100	33.905	
31.200	36.894	
31.300	24.014	
31.400	13.360	
31.500	32.019	
31.600	12.247	
31.700	29.440	
31.800	33.334	
31.900	30.038	
32.000	36.718	
32.100	27.185	
32.200	10.404	
32.300	20.817	
32.400	24.173	
32.500	32.865	
32.600	31.856	
32.700	26.941	
32.800	36.185	
32.900	26.065	
33.000	31.648	
33.100	33.516	
33.200	18.787	
33.300	26.720	
33.400	20.101	
33.500	34.054	
33.600	43.602	
33.700	23.972	
33.800	17.351	
33.900	56.339	
34.000	17.169	
34.100	31.350	
34.200	28.921	
34.300	37.324	
34.400	33.686	
34.500	35.585	
34.600	41.611	
34.700	13.949	
34.800	20.685	
34.900	30.355	
35.000	31.835	
35.100	25.320	
35.200	22.119	
35.300	29.496	
35.400	32.590	
35.500	37.960	
35.600	31.845	
35.700	34.608	
35.800	21.772	
35.900	19.027	
36.000	22.299	
36.100	17.950	
36.200	28.955	
36.300	29.772	
36.400	26.591	
36.500	35.686	
36.600	21.124	
36.700	26.521	
36.800	41.987	
36.900	8.186	
37.000	21.865	
37.100	16.931	
37.200	21.122	
37.300	29.729	
37.400	25.166	
37.500	17.989	
37.600	20.184	
37.700	28.430	
37.800	27.212	
37.900	15.414	
38.000	40.899	
38.100	33.520	
38.200	7.544	
38.300	31.153	
38.400	27.668	
38.500	28.381	
38.600	27.903	
38.700	34.673	
38.800	25.997	
38.900	39.326	
39.000	34.339	
39.100	10.770	
39.200	12.704	
39.300	29.160	
39.400	37.840	
39.500	24.870	
39.600	18.488	
39.700	26.033	
39.800	42.814	
39.900	19.874	
40.000	29.235	
40.100	15.193	
40.200	38.063	
40.300	38.944	
40.400	17.633	
40.500	41.841	
40.600	51.648	
40.700	17.368	
40.800	31.612	
40.900	34.986	
41.000	14.515	
41.100	17.784	
41.200	37.399	
41.300	18.296	
41.400	42.152	
41.500	7.368	
41.600	31.466	
41.700	46.761	
41.800	25.655	
41.900	26.172	
42.000	26.438	
42.100	29.088	
42.200	15.605	
42.300	36.100	
42.400	21.375	
42.500	34.952	
42.600	38.143	
42.700	29.133	
42.800	28.711	
42.900	29.676	
43.000	27.027	
43.100	27.995	
43.200	37.253	
43.300	20.666	
43.400	26.167	
43.500	30.245	
43.600	33.042	
43.700	11.922	
43.800	39.822	
43.900	29.033	
44.000	17.020	
44.100	36.624	
44.200	28.567	
44.300	31.379	
44.400	33.227	
44.500	22.839	
44.600	18.351	
44.700	40.068	
44.800	27.717	
44.900	9.895	
45.000	30.500	
45.100	34.234	
45.200	24.178	
45.300	20.484	
45.400	21.756	
45.500	40.131	
45.600	27.682	
45.700	17.917	
45.800	34.566	
45.900	27.883	
46.000	32.305	
46.100	9.057	
46.200	42.809	
46.300	14.931	
46.400	20.892	
46.500	34.322	
46.600	8.899	
46.700	27.407	
46.800	37.421	
46.900	14.511	
47.000	1.303	
47.100	26.296	
47.200	45.660	
47.300	18.166	
47.400	32.013	
47.500	23.896	
47.600	20.800	
47.700	35.184	
47.800	24.535	
47.900	14.367	
48.000	14.079	
48.100	25.991	
48.200	29.126	
48.300	34.906	
48.400	26.170	
48.500	20.886	
48.600	19.353	
48.700	14.895	
48.800	36.905	
48.900	33.751	
49.000	31.041	
49.100	18.011	
49.200	32.785	
49.300	15.753	
49.400	26.202	
49.500	18.613	
49.600	24.573	
49.700	29.240	
49.800	17.944	
49.900	14.463	
50.000	25.211	
50.100	22.967	
50.200	28.116	
50.300	39.614	
50.400	-8.118	
50.500	35.033	
50.600	31.613	
50.700	38.757	
50.800	25.095	
50.900	22.635	
51.000	16.693	
51.100	27.172	
51.200	23.191	
51.300	37.711	
51.400	15.275	
51.500	39.710	
51.600	30.494	
51.700	28.070	
51.800	31.864	
51.900	15.089	
52.000	17.496	
52.100	22.557	
52.200	17.483	
52.300	32.413	
52.400	9.821	
52.500	22.466	
52.600	27.411	
52.700	8.896	
52.800	28.167	
52.900	20.921	
53.000	35.917	
53.100	36.635	
53.200	8.502	
53.300	24.674	
53.400	18.821	
53.500	18.086	
53.600	27.409	
53.700	16.522	
53.800	27.689	
53.900	22.932	
54.000	23.715	
54.100	45.053	
54.200	16.730	
54.300	20.797	
54.400	33.464	
54.500	40.281	
54.600	26.557	
54.700	15.869	
54.800	26.308	
54.900	26.169	
55.000	30.168	
55.100	11.598	
55.200	23.887	
55.300	31.000	
55.400	33.093	
55.500	42.145	
55.600	33.487	
55.700	18.543	
55.800	21.128	
55.900	22.001	
56.000	33.738	
56.100	9.058	
56.200	27.431	
56.300	34.632	
56.400	34.762	
56.500	25.172	
56.600	16.699	
56.700	52.678	
56.800	26.462	
56.900	18.032	
57.000	37.822	
57.100	32.048	
57.200	25.258	
57.300	28.026	
57.400	22.268	
57.500	12.459	
57.600	43.117	
57.700	25.833	
57.800	32.548	
57.900	14.000	
58.000	31.446	
58.100	27.123	
58.200	8.389	
58.300	27.000	
58.400	18.303	
58.500	36.295	
58.600	34.244	
58.700	27.904	
58.800	15.772	
58.900	38.990	
59.000	25.358	
59.100	41.616	
59.200	16.271	
59.300	16.929	
59.400	33.273	
59.500	39.343	
59.600	30.938	
59.700	32.333	
59.800	28.256	
59.900	24.183	
60.000	12.818	
60.100	38.079	
60.200	30.096	
60.300	20.443	
60.400	28.416	
60.500	28.922	
60.600	31.578	
60.700	47.426	
60.800	27.191	
60.900	15.334	
61.000	39.499	
61.100	33.551	
61.200	26.058	
61.300	23.696	
61.400	31.507	
61.500	39.467	
61.600	42.087	
61.700	33.250	
61.800	21.489	
61.900	20.577	
62.000	27.551	
62.100	39.633	
62.200	42.511	
62.300	25.217	
62.400	35.388	
62.500	18.143	
62.600	27.499	
62.700	17.317	
62.800	36.226	
62.900	38.358	
63.000	40.194	
63.100	31.372	
63.200	34.759	
63.300	42.147	
63.400	18.258	
63.500	47.343	
63.600	21.770	
63.700	13.120	
63.800	20.320	
63.900	14.861	
64.000	37.086	
64.100	24.888	
64.200	30.598	
64.300	36.679	
64.400	44.059	
64.500	26.649	
64.600	17.698	
64.700	10.264	
64.800	44.579	
64.900	38.299	
65.000	26.554	
65.100	13.543	
65.200	27.814	
65.300	27.865	
65.400	35.852	
65.500	30.571	
65.600	26.157	
65.700	26.553	
65.800	26.170	
65.900	13.274	
66.000	31.711	
66.100	40.448	
66.200	26.591	
66.300	37.544	
66.400	21.750	
66.500	39.424	
66.600	13.561	
66.700	24.815	
66.800	10.836	
66.900	25.411	
67.000	45.589	
67.100	9.744	
67.200	31.445	
67.300	2.378	
67.400	29.254	
67.500	24.984	
67.600	24.353	
67.700	31.380	
67.800	32.758	
67.900	12.793	
68.000	25.903	
68.100	33.674	
68.200	24.211	
68.300	28.849	
68.400	21.808	
68.500	53.078	
68.600	20.399	
68.700	28.607	
68.800	20.661	
68.900	31.892	
69.000	13.904	
69.100	24.121	
69.200	29.777	
69.300	25.006	
69.400	31.065	
69.500	35.685	
69.600	17.699	
69.700	27.210	
69.800	17.520	
69.900	37.829	
70.000	22.943	
70.100	6.375	
70.200	32.772	
70.300	22.869	
70.400	19.191	
70.500	45.336	
70.600	21.235	
70.700	24.470	
70.800	37.822	
70.900	23.832	
71.000	13.326	
71.100	34.213	
71.200	39.403	
71.300	19.152	
71.400	25.914	
71.500	31.200	
71.600	39.088	
71.700	37.094	
71.800	32.570	
71.900	34.403	
72.000	24.544	
72.100	13.217	
72.200	34.959	
72.300	3.272	
72.400	-5.189	
72.500	8.706	
72.600	25.549	
72.700	31.916	
72.800	40.675	
72.900	20.100	
73.000	22.738	
73.100	24.142	
73.200	44.229	
73.300	34.418	
73.400	38.887	
73.500	8.027	
73.600	19.404	
73.700	35.184	
73.800	25.338	
73.900	25.999	
74.000	18.624	
74.100	30.306	
74.200	14.786	
74.300	20.590	
74.400	18.259	
74.500	25.940	
74.600	31.693	
74.700	19.959	
74.800	26.182	
74.900	22.106	
75.000	23.898	
75.100	27.486	
75.200	33.784	
75.300	19.058	
75.400	26.423	
75.500	28.623	
75.600	29.949	
75.700	25.571	
75.800	21.020	
75.900	19.402	
76.000	41.392	
76.100	14.040	
76.200	31.193	
76.300	43.753	
76.400	21.620	
76.500	17.829	
76.600	26.689	
76.700	18.594	
76.800	12.226	
76.900	36.427	
77.000	40.252	
77.100	25.556	
77.200	22.748	
77.300	20.666	
77.400	43.199	
77.500	40.151	
77.600	27.817	
77.700	-2.489	
77.800	30.173	
77.900	24.716	
78.000	24.118	
78.100	23.086	
78.200	8.749	
78.300	26.053	
78.400	42.796	
78.500	31.998	
78.600	22.518	
78.700	34.212	
78.800	31.901	
78.900	19.447	
79.000	21.482	
79.100	27.648	
79.200	13.619	
79.300	15.840	
79.400	26.966	
79.500	42.838	
79.600	26.958	
79.700	25.004	
79.800	27.708	
79.900	14.206	
80.000	35.247	
80.100	34.020	
80.200	25.020	
80.300	22.822	
80.400	22.137	
80.500	18.695	
80.600	18.000	
80.700	28.252	
80.800	18.004	
80.900	29.567	
81.000	24.511	
81.100	18.551	
81.200	13.788	
81.300	23.623	
81.400	38.008	
81.500	31.790	
81.600	37.783	
81.700	18.774	
81.800	12.837	
81.900	26.659	
82.000	29.420	
82.100	31.074	
82.200	25.892	
82.300	28.192	
82.400	31.529	
82.500	17.250	
82.600	5.676	
82.700	33.751	
82.800	30.853	
82.900	20.413	
83.000	39.648	
83.100	28.444	
83.200	21.586	
83.300	28.056	
83.400	23.170	
83.500	37.449	
83.600	31.985	
83.700	30.295	
83.800	31.073	
83.900	19.840	
84.000	31.759	
84.100	23.225	
84.200	32.682	
84.300	19.352	
84.400	43.231	
84.500	26.187	
84.600	34.244	
84.700	22.698	
84.800	27.788	
84.900	22.871	
85.000	32.134	
85.100	35.674	
85.200	40.851	
85.300	33.481	
85.400	27.640	
85.500	23.167	
85.600	23.718	
85.700	16.260	
85.800	22.315	
85.900	25.932	
86.000	31.648	
86.100	43.071	
86.200	24.386	
86.300	16.027	
86.400	39.857	
86.500	35.327	
86.600	20.256	
86.700	35.363	
86.800	25.928	
86.900	22.458	
87.000	12.652	
87.100	22.157	
87.200	46.772	
87.300	24.349	
87.400	31.551	
87.500	21.091	
87.600	30.352	
87.700	40.594	
87.800	30.922	
87.900	15.142	
88.000	34.162	
88.100	36.395	
88.200	6.954	
88.300	27.217	
88.400	37.345	
88.500	27.365	
88.600	31.067	
88.700	13.007	
88.800	23.533	
88.900	15.209	
89.000	31.929	
89.100	41.972	
89.200	15.694	
89.300	33.526	
89.400	6.453	
89.500	38.291	
89.600	34.202	
89.700	49.412	
89.800	28.996	
89.900	42.252	
90.000	33.679	
90.100	19.000	
90.200	6.084	
90.300	37.812	
90.400	36.112	
90.500	10.189	
90.600	25.030	
90.700	32.893	
90.800	29.209	
90.900	-0.778	
91.000	31.772	
91.100	32.464	
91.200	33.157	
91.300	15.948	
91.400	14.056	
91.500	27.954	
91.600	20.364	
91.700	30.056	
91.800	37.976	
91.900	30.902	
92.000	13.081	
92.100	33.157	
92.200	43.976	
92.300	20.629	
92.400	32.120	
92.500	10.465	
92.600	34.203	
92.700	30.522	
92.800	32.090	
92.900	14.054	
93.000	30.753	
93.100	28.225	
93.200	25.865	
93.300	32.871	
93.400	16.793	
93.500	23.475	
93.600	20.493	
93.700	22.708	
93.800	5.528	
93.900	27.450	
94.000	25.899	
94.100	30.835	
94.200	25.061	
94.300	26.292	
94.400	17.593	
94.500	8.787	
94.600	22.141	
94.700	11.876	
94.800	40.157	
94.900	27.932	
95.000	29.065	
95.100	32.650	
95.200	4.111	
95.300	31.340	
95.400	32.525	
95.500	25.583	
95.600	28.753	
95.700	5.968	
95.800	25.086	
95.900	13.332	
96.000	14.949	
96.100	23.412	
96.200	29.896	
96.300	15.657	
96.400	23.806	
96.500	17.603	
96.600	47.638	
96.700	6.872	
96.800	19.692	
96.900	25.338	
97.000	22.156	
97.100	16.343	
97.200	19.641	
97.300	16.191	
97.400	21.959	
97.500	12.681	
97.600	21.484	
97.700	20.380	
97.800	22.635	
97.900	20.624	
98.000	24.441	
98.100	5.429	
98.200	22.239	
98.300	21.477	
98.400	15.609	
98.500	35.750	
98.600	33.689	
98.700	16.776	
98.800	4.306	
98.900	32.327	
99.000	19.874	
99.100	33.545	
99.200	33.629	
99.300	25.513	
99.400	22.925	
99.500	29.192	
99.600	22.912	
99.700	35.604	
99.800	2.187	
99.900	7.947	
100.000	16.742	
100.100	30.669	
100.200	25.330	
100.300	18.066	
100.400	1.227	
100.500	31.149	
100.600	24.191	
100.700	15.470	
100.800	30.440	
100.900	8.886	
101.000	38.983	
101.100	24.522	
101.200	18.469	
101.300	25.456	
101.400	8.393	
101.500	29.692	
101.600	28.044	
101.700	25.470	
101.800	3.209	
101.900	21.407	
102.000	19.166	
102.100	7.078	
102.200	27.052	
102.300	41.741	
102.400	24.835	
102.500	14.946	
102.600	22.344	
102.700	18.232	
102.800	8.485	
102.900	29.414	
103.000	4.636	
103.100	21.521	
103.200	21.035	
103.300	12.172	
103.400	36.349	
103.500	12.316	
103.600	13.117	
103.700	27.463	
103.800	34.946	
103.900	17.046	
104.000	17.793	
104.100	25.630	
104.200	23.174	
104.300	25.192	
104.400	20.004	
104.500	26.350	
104.600	20.328	
104.700	14.932	
104.800	0.930	
104.900	16.095	
105.000	25.725	
105.100	30.420	
105.200	4.710	
105.300	24.892	
105.400	28.212	
105.500	29.504	
105.600	26.352	
105.700	29.989	
105.800	21.060	
105.900	28.540	
106.000	28.270	
106.100	24.431	
106.200	22.213	
106.300	13.235	
106.400	36.839	
106.500	11.295	
106.600	25.158	
106.700	31.630	
106.800	15.605	
106.900	29.921	
107.000	27.934	
107.100	21.497	
107.200	28.936	
107.300	16.591	
107.400	9.719	
107.500	17.854	
107.600	18.334	
107.700	26.564	
107.800	21.173	
107.900	31.983	
108.000	20.444	
108.100	23.957	
108.200	15.236	
108.300	19.321	
108.400	15.276	
108.500	8.982	
108.600	13.130	
108.700	21.360	
108.800	17.105	
108.900	19.419	
109.000	32.885	
109.100	29.192	
109.200	9.148	
109.300	16.782	
109.400	30.234	
109.500	24.522	
109.600	21.150	
109.700	35.694	
109.800	31.216	
109.900	10.993	
110.000	30.851	
110.100	17.982	
110.200	23.678	
110.300	42.546	
110.400	14.759	
110.500	-0.069	
110.600	29.068	
110.700	21.052	
110.800	33.623	
110.900	27.999	
111.000	33.018	
111.100	22.818	
111.200	20.079	
111.300	22.399	
111.400	25.323	
111.500	9.836	
111.600	38.559	
111.700	25.886	
111.800	1.194	
111.900	18.783	
112.000	36.845	
112.100	31.620	
112.200	29.759	
112.300	15.404	
112.400	11.809	
112.500	28.818	
112.600	35.332	
112.700	17.709	
112.800	20.945	
112.900	14.115	
113.000	28.303	
113.100	44.161	
113.200	35.225	
113.300	31.299	
113.400	49.088	
113.500	17.895	
113.600	16.304	
113.700	28.703	
113.800	27.238	
113.900	29.066	
114.000	23.274	
114.100	15.484	
114.200	46.403	
114.300	18.799	
114.400	36.005	
114.500	26.134	
114.600	10.828	
114.700	38.064	
114.800	14.659	
114.900	24.146	
115.000	28.487	
115.100	21.989	
115.200	20.866	
115.300	42.238	
115.400	7.664	
115.500	19.523	
115.600	25.935	
115.700	26.042	
115.800	13.046	
115.900	20.283	
116.000	26.509	
116.100	42.913	
116.200	25.232	
116.300	21.861	
116.400	28.600	
116.500	24.701	
116.600	39.519	
116.700	33.850	
116.800	28.280	
116.900	17.475	
117.000	36.296	
117.100	14.143	
117.200	36.060	
117.300	8.723	
117.400	25.284	
117.500	32.389	
117.600	35.368	
117.700	37.385	
117.800	10.395	
117.900	27.545	
118.000	46.981	
118.100	26.480	
118.200	23.085	
118.300	20.543	
118.400	16.819	
118.500	19.003	
118.600	39.652	
118.700	26.345	
118.800	21.914	
118.900	5.280	
119.000	25.469	
119.100	31.684	
119.200	44.839	
119.300	20.289	
119.400	31.965	
119.500	33.391	
119.600	9.562	
119.700	35.050	
119.800	23.844	
119.900	21.727	
120.000	19.793	
120.100	19.593	
120.200	42.432	
120.300	22.232	
120.400	28.910	
120.500	17.097	
120.600	21.196	
120.700	28.571	
120.800	12.158	
120.900	20.727	
121.000	18.674	
121.100	32.163	
121.200	19.419	
121.300	14.652	
121.400	16.973	
121.500	33.081	
121.600	9.623	
121.700	33.279	
121.800	29.708	
121.900	30.411	
122.000	29.354	
122.100	34.320	
122.200	20.852	
122.300	34.221	
122.400	6.225	
122.500	23.847	
122.600	25.694	
122.700	28.387	
122.800	39.356	
122.900	13.744	
123.000	34.772	
123.100	30.163	
123.200	40.094	
123.300	15.111	
123.400	27.334	
123.500	24.197	
123.600	8.537	
123.700	23.410	
123.800	17.232	
123.900	11.353	
124.000	6.722	
124.100	35.086	
124.200	14.903	
124.300	24.973	
124.400	29.378	
124.500	28.522	
124.600	23.346	
124.700	18.425	
124.800	26.807	
124.900	10.440	
125.000	28.564	
125.100	24.114	
125.200	34.922	
125.300	18.478	
125.400	33.409	
125.500	22.273	
125.600	7.748	
125.700	23.961	
125.800	23.333	
125.900	18.141	
126.000	29.926	
126.100	24.013	
126.200	36.477	
126.300	14.937	
126.400	28.341	
126.500	29.324	
126.600	26.676	
126.700	31.081	
126.800	26.892	
126.900	22.671	
127.000	10.393	
127.100	32.416	
127.200	26.162	
127.300	33.481	
127.400	26.334	
127.500	19.930	
127.600	5.210	
127.700	37.789	
127.800	36.954	
127.900	20.175	
128.000	28.015	
128.100	34.518	
128.200	18.824	
128.300	27.113	
128.400	44.030	
128.500	25.582	
128.600	31.923	
128.700	35.967	
128.800	27.471	
128.900	21.240	
129.000	11.171	
129.100	48.956	
129.200	40.303	
129.300	24.990	
129.400	4.726	
129.500	23.985	
129.600	41.664	
129.700	44.529	
129.800	26.258	
129.900	19.532	
130.000	34.170	
130.100	32.815	
130.200	35.056	
130.300	15.560	
130.400	25.335	
130.500	30.066	
130.600	31.193	
130.700	37.452	
130.800	25.449	
130.900	14.201	
131.000	16.498	
131.100	28.188	
131.200	37.316	
131.300	31.473	
131.400	37.742	
131.500	12.370	
131.600	45.133	
131.700	8.562	
131.800	53.266	
131.900	21.855	
132.000	49.733	
132.100	43.565	
132.200	25.081	
132.300	30.700	
132.400	40.565	
132.500	22.358	
132.600	28.793	
132.700	24.527	
132.800	19.618	
132.900	22.233	
133.000	34.400	
133.100	12.094	
133.200	31.400	
133.300	32.128	
133.400	12.926	
133.500	42.260	
133.600	31.342	
133.700	32.621	
133.800	27.945	
133.900	25.130	
134.000	30.009	
134.100	44.981	
134.200	35.586	
134.300	38.830	
134.400	30.822	
134.500	19.583	
134.600	22.689	
134.700	29.275	
134.800	22.327	
134.900	25.108	
135.000	48.497	
135.100	36.798	
135.200	6.622	
135.300	24.476	
135.400	42.953	
135.500	24.851	
135.600	32.417	
135.700	21.429	
135.800	28.001	
135.900	27.220	
136.000	23.840	
136.100	18.129	
136.200	28.975	
136.300	27.434	
136.400	35.287	
136.500	22.737	
136.600	37.022	
136.700	17.154	
136.800	35.307	
136.900	26.911	
137.000	39.211	
137.100	42.059	
137.200	18.202	
137.300	30.896	
137.400	27.578	
137.500	35.961	
137.600	3.451	
137.700	23.493	
137.800	29.413	
137.900	23.530	
138.000	39.532	
138.100	37.849	
138.200	22.208	
138.300	9.956	
138.400	47.178	
138.500	13.539	
138.600	33.750	
138.700	25.744	
138.800	15.801	
138.900	18.943	
139.000	30.388	
139.100	11.308	
139.200	35.105	
139.300	33.447	
139.400	22.739	
139.500	34.744	
139.600	12.192	
139.700	43.997	
139.800	31.800	
139.900	23.102	
140.000	7.144	
140.100	38.745	
140.200	45.847	
140.300	26.093	
140.400	13.683	
140.500	22.145	
140.600	15.619	
140.700	29.484	
140.800	32.614	
140.900	19.449	
141.000	21.363	
141.100	42.484	
141.200	34.870	
141.300	7.350	
141.400	25.909	
141.500	18.273	
141.600	17.962	
141.700	39.617	
141.800	36.159	
141.900	34.165	
142.000	20.477	
142.100	16.408	
142.200	15.630	
142.300	31.184	
142.400	30.669	
142.500	14.453	
142.600	20.108	
142.700	29.048	
142.800	25.759	
142.900	19.533	
143.000	38.798	
143.100	25.298	
143.200	24.330	
143.300	25.193	
143.400	15.032	
143.500	32.436	
143.600	26.583	
143.700	11.172	
143.800	31.626	
143.900	25.343	
144.000	33.643	
144.100	28.790	
144.200	28.984	
144.300	29.810	
144.400	24.361	
144.500	38.645	
144.600	32.421	
144.700	18.926	
144.800	39.148	
144.900	20.817	
145.000	24.349	
145.100	19.875	
145.200	10.113	
145.300	46.468	
145.400	28.029	
145.500	20.199	
145.600	21.567	
145.700	25.526	
145.800	28.396	
145.900	14.247	
146.000	27.980	
146.100	32.691	
146.200	28.949	
146.300	11.544	
146.400	23.387	
146.500	19.682	
146.600	35.046	
146.700	21.768	
146.800	31.054	
146.900	20.073	
147.000	15.099	
147.100	22.496	
147.200	10.661	
147.300	29.245	
147.400	28.624	
147.500	23.294	
147.600	13.093	
147.700	26.556	
147.800	9.887	
147.900	20.367	
148.000	47.115	
148.100	28.451	
148.200	20.791	
148.300	5.426	
148.400	26.803	
148.500	44.746	
148.600	26.723	
148.700	12.385	
148.800	5.461	
148.900	26.535	
149.000	31.522	
149.100	29.654	
149.200	12.383	
149.300	37.977	
149.400	9.498	
149.500	33.806	
149.600	31.224	
149.700	7.491	
149.800	26.687	
149.900	28.142	
150.000	40.197	
150.100	17.161	
150.200	25.737	
150.300	31.973	
150.400	20.456	
150.500	24.590	
150.600	33.457	
150.700	43.195	
150.800	31.572	
150.900	17.142	
151.000	7.910	
151.100	24.013	
151.200	17.978	
151.300	25.939	
151.400	38.172	
151.500	33.216	
151.600	31.382	
151.700	23.965	
151.800	15.585	
151.900	10.837	
152.000	39.683	
152.100	27.724	
152.200	19.944	
152.300	34.824	
152.400	39.140	
152.500	28.934	
152.600	22.347	
152.700	45.678	
152.800	10.707	
152.900	20.444	
153.000	36.667	
153.100	25.010	
153.200	20.707	
153.300	17.231	
153.400	21.266	
153.500	27.997	
153.600	18.030	
153.700	15.815	
153.800	40.257	
153.900	33.368	
154.000	39.429	
154.100	26.763	
154.200	25.465	
154.300	24.139	
154.400	22.840	
154.500	23.823	
154.600	16.726	
154.700	18.727	
154.800	18.971	
154.900	17.418	
155.000	19.246	
155.100	18.525	
155.200	31.188	
155.300	22.372	
155.400	23.119	
155.500	40.090	
155.600	10.915	
155.700	16.075	
155.800	41.404	
155.900	38.880	
156.000	19.057	
156.100	43.837	
156.200	21.471	
156.300	27.528	
156.400	30.055	
156.500	16.583	
156.600	25.376	
156.700	18.014	
156.800	30.212	
156.900	21.086	
157.000	28.237	
157.100	33.577	
157.200	25.589	
157.300	23.138	
157.400	24.500	
157.500	44.375	
157.600	15.376	
157.700	26.003	
157.800	19.871	
157.900	8.599	
158.000	17.174	
158.100	22.045	
158.200	11.365	
158.300	24.560	
158.400	32.656	
158.500	33.227	
158.600	31.686	
158.700	43.229	
158.800	25.707	
158.900	14.226	
159.000	25.610	
159.100	18.101	
159.200	28.428	
159.300	18.727	
159.400	17.450	
159.500	17.242	
159.600	20.312	
159.700	31.550	
159.800	35.697	
159.900	35.113	
160.000	29.603	
160.100	30.560	
160.200	37.126	
160.300	35.049	
160.400	32.647	
160.500	13.241	
160.600	22.955	
160.700	30.971	
160.800	26.291	
160.900	32.826	
161.000	18.169	
161.100	13.751	
161.200	30.198	
161.300	33.567	
161.400	34.204	
161.500	24.882	
161.600	25.021	
161.700	6.281	
161.800	41.052	
161.900	25.337	
162.000	10.374	
162.100	17.524	
162.200	16.183	
162.300	17.588	
162.400	36.968	
162.500	21.686	
162.600	46.442	
162.700	5.740	
162.800	12.894	
162.900	26.848	
163.000	42.137	
163.100	29.042	
163.200	22.939	
163.300	29.684	
163.400	15.428	
163.500	10.854	
163.600	29.998	
163.700	29.519	
163.800	16.752	
163.900	33.268	
164.000	22.044	
164.100	14.003	
164.200	39.029	
164.300	8.972	
164.400	55.257	
164.500	27.482	
164.600	28.554	
164.700	21.159	
164.800	29.579	
164.900	27.109	
165.000	21.017	
165.100	45.248	
165.200	44.706	
165.300	7.768	
165.400	35.157	
165.500	21.346	
165.600	23.834	
165.700	35.360	
165.800	29.778	
165.900	24.953	
166.000	25.059	
166.100	4.829	
166.200	34.317	
166.300	17.222	
166.400	26.726	
166.500	34.141	
166.600	25.587	
166.700	29.377	
166.800	30.679	
166.900	34.453	
167.000	24.423	
167.100	26.189	
167.200	22.816	
167.300	29.792	
167.400	18.125	
167.500	53.988	
167.600	30.059	
167.700	19.457	
167.800	16.231	
167.900	10.784	
168.000	35.069	
168.100	49.367	
168.200	31.186	
168.300	27.998	
168.400	-0.284	
168.500	40.925	
168.600	35.670	
168.700	21.649	
168.800	15.858	
168.900	24.947	
169.000	25.121	
169.100	43.046	
169.200	31.138	
169.300	22.948	
169.400	12.816	
169.500	40.734	
169.600	26.562	
169.700	3.897	
169.800	42.021	
169.900	15.954	
170.000	35.800	
170.100	2.878	
170.200	33.045	
170.300	18.770	
170.400	31.496	
170.500	31.361	
170.600	38.052	
170.700	19.131	
170.800	21.472	
170.900	26.988	
171.000	33.338	
171.100	30.870	
171.200	24.145	
171.300	5.783	
171.400	40.293	
171.500	35.730	
171.600	6.892	
171.700	11.877	
171.800	29.099	
171.900	20.163	
172.000	7.880	
172.100	45.012	
172.200	24.341	
172.300	20.655	
172.400	28.943	
172.500	14.634	
172.600	25.346	
172.700	21.442	
172.800	38.931	
172.900	14.171	
173.000	2.068	
173.100	10.099	
173.200	42.574	
173.300	42.187	
173.400	21.669	
173.500	33.686	
173.600	27.526	
173.700	19.465	
173.800	31.245	
173.900	39.502	
174.000	29.977	
174.100	22.268	
174.200	27.527	
174.300	25.648	
174.400	27.773	
174.500	47.172	
174.600	25.184	
174.700	23.993	
174.800	23.774	
174.900	16.756	
175.000	20.602	
175.100	32.371	
175.200	26.480	
175.300	19.964	
175.400	31.415	
175.500	20.959	
175.600	9.756	
175.700	32.618	
175.800	41.495	
175.900	13.377	
176.000	31.630	
176.100	38.578	
176.200	17.568	
176.300	27.104	
176.400	51.912	
176.500	39.749	
176.600	35.017	
176.700	41.175	
176.800	19.298	
176.900	10.539	
177.000	41.617	
177.100	23.981	
177.200	24.963	
177.300	21.101	
177.400	20.344	
177.500	32.558	
177.600	29.268	
177.700	38.274	
177.800	32.991	
177.900	33.002	
178.000	33.460	
178.100	15.382	
178.200	21.690	
178.300	33.010	
178.400	27.126	
178.500	29.037	
178.600	33.149	
178.700	27.110	
178.800	10.054	
178.900	6.342	
179.000	31.472	
179.100	23.149	
179.200	45.551	
179.300	38.615	
179.400	19.587	
179.500	23.014	
179.600	26.466	
179.700	23.630	
179.800	30.267	
179.900	31.054	
180.000	23.174	
180.100	30.173	
180.200	32.212	
180.300	29.011	
180.400	22.059	
180.500	11.803	
180.600	29.155	
180.700	16.757	
180.800	29.620	
180.900	29.119	
181.000	38.731	
181.100	23.984	
181.200	25.940	
181.300	39.103	
181.400	34.149	
181.500	35.349	
181.600	41.163	
181.700	1.038	
181.800	41.665	
181.900	34.418	
182.000	47.834	
182.100	27.769	
182.200	19.842	
182.300	43.764	
182.400	36.103	
182.500	37.383	
182.600	29.296	
182.700	22.120	
182.800	35.529	
182.900	30.313	
183.000	41.632	
183.100	28.526	
183.200	34.163	
183.300	23.801	
183.400	49.770	
183.500	34.696	
183.600	33.584	
183.700	32.602	
183.800	28.798	
183.900	33.713	
184.000	13.866	
184.100	35.611	
184.200	42.279	
184.300	31.944	
184.400	24.581	
184.500	28.772	
184.600	35.645	
184.700	33.324	
184.800	39.076	
184.900	17.501	
185.000	45.527	
185.100	45.217	
185.200	18.804	
185.300	26.119	
185.400	21.037	
185.500	14.979	
185.600	26.816	
185.700	38.834	
185.800	30.382	
185.900	37.902	
186.000	39.770	
186.100	24.676	
186.200	27.773	
186.300	28.563	
186.400	31.235	
186.500	56.606	
186.600	29.797	
186.700	7.550	
186.800	27.135	
186.900	47.896	
187.000	32.782	
187.100	37.408	
187.200	18.386	
187.300	46.134	
187.400	32.572	
187.500	20.386	
187.600	28.135	
187.700	16.873	
187.800	38.556	
187.900	40.789	
188.000	36.037	
188.100	17.019	
188.200	43.661	
188.300	47.727	
188.400	30.989	
188.500	40.644	
188.600	32.915	
188.700	48.794	
188.800	37.496	
188.900	31.497	
189.000	44.815	
189.100	40.306	
189.200	41.887	
189.300	15.268	
189.400	26.710	
189.500	35.241	
189.600	61.502	
189.700	47.813	
189.800	20.530	
189.900	25.868	
190.000	25.558	
190.100	38.673	
190.200	32.911	
190.300	18.534	
190.400	46.252	
190.500	31.115	
190.600	32.495	
190.700	25.288	
190.800	32.359	
190.900	27.707	
191.000	40.040	
191.100	38.077	
191.200	42.978	
191.300	30.706	
191.400	7.894	
191.500	17.440	
191.600	35.313	
191.700	40.042	
191.800	29.002	
191.900	36.984	
192.000	24.132	
192.100	43.912	
192.200	27.531	
192.300	13.853	
192.400	35.396	
192.500	41.570	
192.600	24.149	
192.700	13.059	
192.800	32.143	
192.900	38.130	
193.000	40.544	
193.100	38.477	
193.200	45.208	
193.300	35.872	
193.400	31.886	
193.500	27.792	
193.600	46.487	
193.700	32.039	
193.800	38.619	
193.900	30.262	
194.000	38.270	
194.100	18.476	
194.200	35.913	
194.300	27.602	
194.400	20.943	
194.500	29.723	
194.600	45.147	
194.700	36.355	
194.800	25.220	
194.900	29.564	
195.000	33.734	
195.100	29.664	
195.200	34.646	
195.300	25.578	
195.400	11.520	
195.500	25.696	
195.600	29.626	
195.700	14.035	
195.800	52.072	
195.900	39.326	
196.000	30.200	
196.100	32.726	
196.200	31.940	
196.300	17.092	
196.400	17.499	
196.500	52.558	
196.600	9.059	
196.700	42.071	
196.800	30.242	
196.900	14.014	
197.000	13.300	
197.100	42.575	
197.200	35.534	
197.300	37.931	
197.400	25.283	
197.500	16.279	
197.600	27.497	
197.700	16.688	
197.800	41.035	
197.900	16.617	
198.000	27.479	
198.100	0.182	
198.200	33.470	
198.300	39.009	
198.400	31.783	
198.500	25.729	
198.600	29.235	
198.700	31.907	
198.800	20.421	
198.900	46.436	
199.000	38.476	
199.100	32.106	
199.200	29.332	
199.300	18.718	
199.400	34.866	
199.500	42.606	
199.600	32.994	
199.700	21.595	
199.800	29.297	
199.900	43.906	
200.000	38.378	
200.100	10.261	
200.200	46.723	
200.300	24.338	
200.400	24.716	
200.500	34.353	
200.600	37.499	
200.700	36.896	
200.800	23.079	
200.900	16.328	
201.000	26.575	
201.100	22.906	
201.200	39.248	
201.300	27.231	
201.400	18.394	
201.500	10.726	
201.600	47.485	
201.700	40.383	
201.800	24.337	
201.900	3.861	
202.000	37.386	
202.100	28.998	
202.200	51.539	
202.300	37.825	
202.400	31.201	
202.500	28.087	
202.600	39.523	
202.700	19.614	
202.800	40.758	
202.900	17.802	
203.000	29.153	
203.100	21.619	
203.200	14.916	
203.300	32.789	
203.400	25.977	
203.500	25.227	
203.600	21.401	
203.700	36.065	
203.800	37.190	
203.900	11.217	
204.000	22.935	
204.100	14.289	
204.200	51.422	
204.300	22.831	
204.400	33.329	
204.500	13.467	
204.600	20.132	
204.700	34.167	
204.800	14.511	
204.900	29.629	
205.000	38.427	
205.100	34.481	
205.200	44.696	
205.300	24.089	
205.400	20.728	
205.500	23.278	
205.600	21.992	
205.700	29.823	
205.800	26.339	
205.900	7.264	
206.000	30.368	
206.100	48.939	
206.200	46.382	
206.300	30.660	
206.400	30.512	
206.500	22.788	
206.600	36.563	
206.700	23.701	
206.800	21.141	
206.900	39.507	
207.000	25.117	
207.100	29.773	
207.200	29.388	
207.300	28.225	
207.400	27.895	
207.500	38.201	
207.600	32.457	
207.700	32.017	
207.800	18.817	
207.900	24.006	
208.000	47.568	
208.100	20.420	
208.200	19.130	
208.300	25.949	
208.400	36.383	
208.500	13.263	
208.600	17.200	
208.700	26.722	
208.800	26.503	
208.900	33.248	
209.000	31.962	
209.100	8.514	
209.200	28.710	
209.300	29.580	
209.400	29.068	
209.500	33.956	
209.600	34.598	
209.700	27.905	
209.800	39.938	
209.900	29.493	
210.000	24.747	
210.100	27.972	
210.200	29.208	
210.300	24.306	
210.400	24.620	
210.500	20.183	
210.600	28.242	
210.700	34.092	
210.800	12.962	
210.900	22.051	
211.000	49.069	
211.100	12.961	
211.200	14.191	
211.300	39.960	
211.400	25.490	
211.500	10.981	
211.600	8.322	
211.700	27.394	
211.800	30.991	
211.900	25.092	
212.000	34.433	
212.100	22.146	
212.200	31.359	
212.300	23.822	
212.400	29.536	
212.500	18.398	
212.600	19.133	
212.700	24.673	
212.800	38.751	
212.900	17.019	
213.000	39.293	
213.100	31.197	
213.200	40.208	
213.300	24.715	
213.400	16.964	
213.500	23.173	
213.600	11.663	
213.700	24.043	
213.800	27.405	
213.900	40.375	
214.000	16.003	
214.100	17.371	
214.200	39.599	
214.300	29.288	
214.400	30.243	
214.500	37.890	
214.600	17.586	
214.700	23.552	
214.800	38.704	
214.900	39.514	
215.000	31.307	
215.100	37.466	
215.200	30.452	
215.300	12.051	
215.400	26.513	
215.500	28.152	
215.600	12.649	
215.700	15.298	
215.800	23.100	
215.900	21.426	
216.000	34.575	
216.100	18.882	
216.200	7.652	
216.300	28.301	
216.400	29.164	
216.500	32.680	
216.600	20.581	
216.700	36.089	
216.800	10.587	
216.900	33.068	
217.000	30.162	
217.100	19.637	
217.200	24.978	
217.300	43.195	
217.400	22.394	
217.500	23.479	
217.600	35.879	
217.700	24.689	
217.800	23.719	
217.900	28.415	
218.000	50.364	
218.100	25.263	
218.200	27.707	
218.300	30.080	
218.400	21.528	
218.500	40.586	
218.600	37.286	
218.700	19.362	
218.800	25.132	
218.900	20.234	
219.000	28.132	
219.100	13.131	
219.200	31.863	
219.300	33.437	
219.400	21.309	
219.500	29.492	
219.600	33.188	
219.700	22.157	
219.800	33.375	
219.900	27.338	
220.000	31.979	
220.100	26.745	
220.200	35.789	
220.300	15.411	
220.400	36.404	
220.500	25.887	
220.600	36.616	
220.700	32.047	
220.800	27.303	
220.900	24.829	
221.000	36.280	
221.100	28.341	
221.200	20.093	
221.300	12.554	
221.400	25.077	
221.500	32.593	
221.600	31.282	
221.700	25.973	
221.800	14.792	
221.900	25.981	
222.000	31.465	
222.100	18.195	
222.200	10.635	
222.300	22.232	
222.400	42.449	
222.500	29.485	
222.600	41.039	
222.700	21.655	
222.800	19.226	
222.900	36.171	
223.000	31.199	
223.100	34.845	
223.200	10.801	
223.300	31.118	
223.400	15.614	
223.500	28.202	
223.600	18.351	
223.700	24.488	
223.800	19.212	
223.900	34.323	
224.000	11.976	
224.100	20.043	
224.200	27.196	
224.300	25.797	
224.400	17.856	
224.500	20.938	
224.600	21.665	
224.700	26.664	
224.800	19.547	
224.900	23.626	
225.000	24.751	
225.100	33.305	
225.200	33.789	
225.300	26.995	
225.400	36.587	
225.500	31.799	
225.600	15.133	
225.700	18.653	
225.800	32.363	
225.900	19.096	
226.000	38.234	
226.100	21.998	
226.200	32.317	
226.300	33.866	
226.400	18.814	
226.500	34.387	
226.600	34.062	
226.700	18.097	
226.800	30.941	
226.900	23.262	
227.000	35.571	
227.100	34.992	
227.200	27.318	
227.300	11.227	
227.400	26.526	
227.500	40.953	
227.600	37.204	
227.700	15.824	
227.800	21.522	
227.900	42.504	
228.000	33.343	
228.100	29.771	
228.200	30.933	
228.300	17.911	
228.400	27.148	
228.500	45.492	
228.600	17.725	
228.700	36.048	
228.800	35.148	
228.900	22.279	
229.000	35.366	
229.100	34.447	
229.200	32.070	
229.300	9.207	
229.400	34.355	
229.500	33.155	
229.600	18.814	
229.700	28.229	
229.800	38.505	
229.900	27.307	
230.000	38.724	
230.100	31.870	
230.200	29.862	
230.300	32.434	
230.400	38.148	
230.500	22.031	
230.600	10.489	
230.700	31.575	
230.800	35.613	
230.900	30.407	
231.000	40.612	
231.100	25.330	
231.200	21.561	
231.300	34.991	
231.400	25.629	
231.500	35.808	
231.600	29.248	
231.700	17.376	
231.800	19.516	
231.900	46.427	
232.000	32.308	
232.100	30.870	
232.200	26.982	
232.300	30.233	
232.400	20.754	
232.500	27.503	
232.600	21.346	
232.700	31.562	
232.800	27.290	
232.900	30.776	
233.000	29.286	
233.100	50.596	
233.200	8.723	
233.300	36.347	
233.400	23.519	
233.500	51.090	
233.600	32.980	
233.700	29.300	
233.800	33.151	
233.900	38.606	
234.000	16.519	
234.100	34.218	
234.200	48.201	
234.300	26.599	
234.400	35.964	
234.500	33.622	
234.600	27.668	
234.700	33.438	
234.800	26.466	
234.900	24.350	
235.000	21.866	
235.100	22.129	
235.200	23.956	
235.300	27.957	
235.400	37.559	
235.500	33.394	
235.600	18.375	
235.700	22.279	
235.800	34.390	
235.900	12.740	
236.000	43.416	
236.100	30.395	
236.200	20.860	
236.300	29.878	
236.400	20.896	
236.500	20.489	
236.600	26.023	
236.700	40.117	
236.800	24.463	
236.900	17.773	
237.000	33.260	
237.100	29.288	
237.200	20.354	
237.300	25.018	
237.400	31.617	
237.500	25.616	
237.600	34.377	
237.700	37.696	
237.800	24.762	
237.900	19.121	
238.000	24.192	
238.100	39.320	
238.200	8.210	
238.300	30.286	
238.400	23.737	
238.500	36.279	
238.600	35.607	
238.700	24.801	
238.800	43.072	
238.900	38.687	
239.000	30.109	
239.100	19.866	
239.200	25.456	
239.300	15.263	
239.400	27.716	
239.500	37.515	
239.600	50.093	
239.700	21.935	
239.800	14.743	
239.900	21.364	
240.000	15.790	
240.100	30.082	
240.200	12.810	
240.300	24.522	
240.400	38.618	
240.500	24.585	
240.600	30.438	
240.700	30.832	
240.800	29.679	
240.900	9.806	
241.000	38.845	
241.100	21.725	
241.200	30.212	
241.300	20.284	
241.400	29.688	
241.500	32.510	
241.600	41.862	
241.700	39.378	
241.800	9.036	
241.900	12.848	
242.000	31.276	
242.100	41.693	
242.200	29.191	
242.300	17.451	
242.400	23.716	
242.500	22.544	
242.600	24.148	
242.700	38.135	
242.800	24.165	
242.900	13.480	
243.000	14.206	
243.100	43.084	
243.200	31.509	
243.300	14.030	
243.400	27.808	
243.500	26.622	
243.600	32.953	
243.700	18.908	
243.800	17.135	
243.900	29.268	
244.000	12.855	
244.100	34.017	
244.200	19.197	
244.300	18.132	
244.400	21.959	
244.500	21.614	
244.600	25.575	
244.700	29.498	
244.800	36.448	
244.900	6.980	
245.000	35.273	
245.100	20.816	
245.200	3.195	
245.300	20.644	
245.400	22.327	
245.500	33.394	
245.600	38.529	
245.700	37.142	
245.800	20.035	
245.900	20.576	
246.000	21.413	
246.100	15.386	
246.200	31.819	
246.300	32.235	
246.400	22.968	
246.500	32.700	
246.600	19.723	
246.700	39.242	
246.800	21.646	
246.900	31.394	
247.000	24.928	
247.100	27.629	
247.200	7.802	
247.300	27.325	
247.400	33.585	
247.500	27.775	
247.600	19.622	
247.700	32.016	
247.800	22.497	
247.900	9.482	
248.000	39.063	
248.100	30.741	
248.200	43.369	
248.300	17.894	
248.400	37.962	
248.500	13.353	
248.600	29.471	
248.700	21.598	
248.800	23.333	
248.900	24.021	
249.000	36.535	
249.100	51.830	
249.200	39.854	
249.300	28.667	
249.400	31.471	
249.500	44.431	
249.600	40.165	
249.700	44.216	
249.800	38.308	
249.900	43.318	
250.000	96.170	
250.100	128.184	
250.200	481.595	
250.300	806.734	
250.400	369.880	
250.500	123.098	
250.600	54.854	
250.700	48.514	
250.800	22.944	
250.900	47.976	
251.000	28.769	
251.100	23.352	
251.200	13.360	
251.300	40.316	
251.400	34.326	
251.500	17.947	
251.600	46.628	
251.700	26.320	
251.800	33.060	
251.900	21.412	
252.000	15.885	
252.100	32.408	
252.200	34.246	
252.300	36.238	
252.400	40.840	
252.500	31.411	
252.600	34.100	
252.700	26.032	
252.800	17.502	
252.900	19.421	
253.000	31.819	
253.100	44.217	
253.200	23.219	
253.300	34.455	
253.400	17.340	
253.500	27.986	
253.600	26.287	
253.700	30.858	
253.800	30.342	
253.900	32.058	
254.000	30.874	
254.100	30.701	
254.200	37.151	
254.300	27.856	
254.400	48.189	
254.500	15.434	
254.600	27.457	
254.700	9.009	
254.800	19.634	
254.900	24.026	
255.000	33.449	
255.100	24.965	
255.200	27.732	
255.300	20.601	
255.400	26.414	
255.500	35.266	
255.600	25.987	
255.700	23.131	
255.800	33.810	
255.900	28.475	
256.000	23.745	
256.100	30.205	
256.200	28.685	
256.300	34.962	
256.400	26.931	
256.500	30.072	
256.600	28.651	
256.700	16.376	
256.800	31.005	
256.900	40.707	
257.000	14.055	
257.100	33.275	
257.200	14.966	
257.300	32.775	
257.400	33.433	
257.500	29.864	
257.600	22.106	
257.700	18.247	
257.800	30.470	
257.900	30.617	
258.000	28.913	
258.100	25.678	
258.200	33.628	
258.300	19.005	
258.400	27.391	
258.500	40.659	
258.600	34.363	
258.700	26.586	
258.800	22.704	
258.900	21.339	
259.000	34.075	
259.100	24.874	
259.200	36.281	
259.300	12.740	
259.400	24.390	
259.500	29.278	
259.600	37.511	
259.700	14.476	
259.800	31.179	
259.900	30.999	
260.000	34.667	
260.100	38.608	
260.200	22.050	
260.300	17.766	
260.400	24.333	
260.500	30.599	
260.600	19.258	
260.700	16.428	
260.800	21.357	
260.900	21.233	
261.000	9.903	
261.100	32.826	
261.200	26.957	
261.300	31.290	
261.400	32.495	
261.500	32.267	
261.600	16.656	
261.700	44.050	
261.800	16.366	
261.900	28.133	
262.000	-2.777	
262.100	20.163	
262.200	38.520	
262.300	39.179	
262.400	36.266	
262.500	44.404	
262.600	31.482	
262.700	28.848	
262.800	2.396	
262.900	29.910	
263.000	32.073	
263.100	34.672	
263.200	38.839	
263.300	41.736	
263.400	29.388	
263.500	36.289	
263.600	15.566	
263.700	47.832	
263.800	24.542	
263.900	24.342	
264.000	11.846	
264.100	41.240	
264.200	32.940	
264.300	17.039	
264.400	30.633	
264.500	31.251	
264.600	26.153	
264.700	34.992	
264.800	33.673	
264.900	29.391	
265.000	25.655	
265.100	45.349	
265.200	11.432	
265.300	37.756	
265.400	12.806	
265.500	28.477	
265.600	40.176	
265.700	21.102	
265.800	25.469	
265.900	27.067	
266.000	29.982	
266.100	25.992	
266.200	26.279	
266.300	24.903	
266.400	21.927	
266.500	16.463	
266.600	17.625	
266.700	29.169	
266.800	46.999	
266.900	45.960	
267.000	19.711	
267.100	14.856	
267.200	25.098	
267.300	16.396	
267.400	41.274	
267.500	18.247	
267.600	14.839	
267.700	41.293	
267.800	34.839	
267.900	30.644	
268.000	22.699	
268.100	29.533	
268.200	22.451	
268.300	25.151	
268.400	33.874	
268.500	30.936	
268.600	31.591	
268.700	22.999	
268.800	23.433	
268.900	28.670	
269.000	29.548	
269.100	31.942	
269.200	27.161	
269.300	23.217	
269.400	23.617	
269.500	32.540	
269.600	20.213	
269.700	23.698	
269.800	41.304	
269.900	30.318	
270.000	26.289	
270.100	26.187	
270.200	20.433	
270.300	17.761	
270.400	34.457	
270.500	24.929	
270.600	28.465	
270.700	22.586	
270.800	19.959	
270.900	31.835	
271.000	36.424	
271.100	34.826	
271.200	21.177	
271.300	12.103	
271.400	29.471	
271.500	22.296	
271.600	24.155	
271.700	24.704	
271.800	32.100	
271.900	45.730	
272.000	25.915	
272.100	37.277	
272.200	11.253	
272.300	30.717	
272.400	34.303	
272.500	33.584	
272.600	30.920	
272.700	19.934	
272.800	25.612	
272.900	4.513	
273.000	38.640	
273.100	38.632	
273.200	31.594	
273.300	10.547	
273.400	33.817	
273.500	41.828	
273.600	27.671	
273.700	21.443	
273.800	21.654	
273.900	18.769	
274.000	31.524	
274.100	35.320	
274.200	32.380	
274.300	30.572	
274.400	27.708	
274.500	26.547	
274.600	11.931	
274.700	28.172	
274.800	2.262	
274.900	39.394	
275.000	38.931	
275.100	25.668	
275.200	31.533	
275.300	25.958	
275.400	26.379	
275.500	24.761	
275.600	28.810	
275.700	13.280	
275.800	31.057	
275.900	23.659	
276.000	9.022	
276.100	38.540	
276.200	18.620	
276.300	35.703	
276.400	4.679	
276.500	20.839	
276.600	29.843	
276.700	26.998	
276.800	32.357	
276.900	26.130	
277.000	42.728	
277.100	27.272	
277.200	23.210	
277.300	39.580	
277.400	32.663	
277.500	22.602	
277.600	33.056	
277.700	22.013	
277.800	43.836	
277.900	18.885	
278.000	20.140	
278.100	32.365	
278.200	11.334	
278.300	14.535	
278.400	30.304	
278.500	33.833	
278.600	42.936	
278.700	41.338	
278.800	23.574	
278.900	16.825	
279.000	45.905	
279.100	23.668	
279.200	23.850	
279.300	28.866	
279.400	37.815	
279.500	33.424	
279.600	26.689	
279.700	21.233	
279.800	22.686	
279.900	31.294	
280.000	18.516	
280.100	22.148	
280.200	36.642	
280.300	20.879	
280.400	44.906	
280.500	33.552	
280.600	26.758	
280.700	7.984	
280.800	27.252	
280.900	46.603	
281.000	41.341	
281.100	32.885	
281.200	41.996	
281.300	33.832	
281.400	16.068	
281.500	50.106	
281.600	36.313	
281.700	34.827	
281.800	33.613	
281.900	35.904	
282.000	31.745	
282.100	35.515	
282.200	21.208	
282.300	37.669	
282.400	23.290	
282.500	26.992	
282.600	31.816	
282.700	37.083	
282.800	34.537	
282.900	35.116	
283.000	27.914	
283.100	33.425	
283.200	29.682	
283.300	36.986	
283.400	38.479	
283.500	24.204	
283.600	13.018	
283.700	34.911	
283.800	27.211	
283.900	32.016	
284.000	25.307	
284.100	32.359	
284.200	49.632	
284.300	22.891	
284.400	37.552	
284.500	17.870	
284.600	46.524	
284.700	25.186	
284.800	12.481	
284.900	36.488	
285.000	29.197	
285.100	26.544	
285.200	30.785	
285.300	29.673	
285.400	20.872	
285.500	29.795	
285.600	42.284	
285.700	22.050	
285.800	44.801	
285.900	41.008	
286.000	33.390	
286.100	23.421	
286.200	35.382	
286.300	39.528	
286.400	20.562	
286.500	11.506	
286.600	39.633	
286.700	36.295	
286.800	36.439	
286.900	39.643	
287.000	35.588	
287.100	26.096	
287.200	35.838	
287.300	35.817	
287.400	12.999	
287.500	32.199	
287.600	43.671	
287.700	24.629	
287.800	31.813	
287.900	41.480	
288.000	31.057	
288.100	29.815	
288.200	31.847	
288.300	46.132	
288.400	22.216	
288.500	33.114	
288.600	26.315	
288.700	24.058	
288.800	24.399	
288.900	32.568	
289.000	23.137	
289.100	39.746	
289.200	30.283	
289.300	36.122	
289.400	31.855	
289.500	39.496	
289.600	29.110	
289.700	20.503	
289.800	25.090	
289.900	23.009	
290.000	35.064	
290.100	42.709	
290.200	40.623	
290.300	18.745	
290.400	26.370	
290.500	32.727	
290.600	20.969	
290.700	41.943	
290.800	25.130	
290.900	27.859	
291.000	24.660	
291.100	38.084	
291.200	3.910	
291.300	29.712	
291.400	36.522	
291.500	39.309	
291.600	30.142	
291.700	24.111	
291.800	37.222	
291.900	28.859	
292.000	26.871	
292.100	27.913	
292.200	16.535	
292.300	38.672	
292.400	22.250	
292.500	22.568	
292.600	34.742	
292.700	36.679	
292.800	24.439	
292.900	16.212	
293.000	27.544	
293.100	23.992	
293.200	24.093	
293.300	13.205	
293.400	41.059	
293.500	34.157	
293.600	20.498	
293.700	7.952	
293.800	29.842	
293.900	40.939	
294.000	20.847	
294.100	4.925	
294.200	31.137	
294.300	29.499	
294.400	43.339	
294.500	38.870	
294.600	33.749	
294.700	7.284	
294.800	34.889	
294.900	42.877	
295.000	35.862	
295.100	-3.559	
295.200	12.838	
295.300	41.291	
295.400	21.186	
295.500	37.950	
295.600	33.168	
295.700	39.483	
295.800	36.796	
295.900	31.144	
296.000	24.179	
296.100	32.607	
296.200	30.574	
296.300	25.108	
296.400	25.563	
296.500	21.723	
296.600	23.928	
296.700	28.180	
296.800	32.032	
296.900	21.160	
297.000	30.786	
297.100	31.161	
297.200	28.983	
297.300	16.427	
297.400	35.181	
297.500	20.222	
297.600	16.512	
297.700	28.895	
297.800	24.482	
297.900	24.269	
298.000	37.934	
298.100	35.199	
298.200	2.708	
298.300	49.517	
298.400	34.540	
298.500	23.290	
298.600	30.470	
298.700	20.143	
298.800	34.528	
298.900	22.787	
299.000	30.004	
299.100	25.751	
299.200	21.830	
299.300	23.976	
299.400	26.751	
299.500	21.308	
299.600	28.492	
299.700	39.518	
299.800	19.593	
299.900	34.221	
300.000	20.413	
300.100	26.567	
300.200	22.184	
300.300	17.663	
300.400	27.361	
300.500	19.714	
300.600	28.722	
300.700	37.426	
300.800	25.491	
300.900	31.503	
301.000	25.548	
301.100	28.975	
301.200	20.463	
301.300	14.457	
301.400	37.097	
301.500	31.618	
301.600	31.087	
301.700	29.664	
301.800	37.529	
301.900	21.695	
302.000	25.439	
302.100	43.754	
302.200	17.804	
302.300	20.624	
302.400	19.262	
302.500	36.009	
302.600	27.096	
302.700	37.622	
302.800	25.408	
302.900	13.983	
303.000	44.347	
303.100	44.924	
303.200	25.814	
303.300	31.219	
303.400	27.288	
303.500	32.807	
303.600	17.838	
303.700	41.994	
303.800	27.807	
303.900	25.601	
304.000	29.423	
304.100	44.978	
304.200	33.551	
304.300	37.601	
304.400	31.226	
304.500	34.996	
304.600	41.696	
304.700	32.233	
304.800	32.248	
304.900	41.056	
305.000	31.490	
305.100	25.686	
305.200	21.281	
305.300	31.207	
305.400	43.864	
305.500	37.369	
305.600	28.031	
305.700	31.595	
305.800	39.724	
305.900	40.497	
306.000	17.543	
306.100	31.993	
306.200	52.351	
306.300	16.096	
306.400	12.838	
306.500	41.563	
306.600	37.162	
306.700	43.439	
306.800	11.829	
306.900	29.533	
307.000	21.494	
307.100	38.262	
307.200	22.486	
307.300	24.305	
307.400	21.321	
307.500	36.626	
307.600	56.679	
307.700	13.388	
307.800	23.684	
307.900	35.210	
308.000	22.931	
308.100	20.921	
308.200	51.802	
308.300	32.918	
308.400	19.266	
308.500	29.204	
308.600	32.867	
308.700	35.011	
308.800	22.583	
308.900	41.921	
309.000	39.492	
309.100	23.717	
309.200	33.031	
309.300	26.943	
309.400	25.171	
309.500	38.483	
309.600	22.902	
309.700	34.645	
309.800	39.613	
309.900	10.154	
310.000	21.788	
310.100	28.058	
310.200	29.879	
310.300	31.181	
310.400	26.194	
310.500	35.178	
310.600	33.488	
310.700	26.261	
310.800	29.585	
310.900	34.094	
311.000	34.087	
311.100	34.658	
311.200	28.900	
311.300	28.028	
311.400	18.084	
311.500	23.040	
311.600	43.109	
311.700	26.702	
311.800	42.329	
311.900	17.224	
312.000	30.245	
312.100	29.008	
312.200	34.819	
312.300	28.305	
312.400	17.951	
312.500	38.674	
312.600	19.420	
312.700	50.581	
312.800	35.757	
312.900	32.280	
313.000	9.970	
313.100	26.936	
313.200	40.861	
313.300	35.006	
313.400	34.026	
313.500	47.543	
313.600	37.411	
313.700	18.852	
313.800	42.962	
313.900	26.022	
314.000	23.529	
314.100	19.991	
314.200	28.710	
314.300	43.419	
314.400	19.673	
314.500	40.905	
314.600	42.698	
314.700	36.356	
314.800	19.970	
314.900	35.872	
315.000	28.218	
315.100	40.261	
315.200	39.378	
315.300	32.805	
315.400	21.649	
315.500	28.360	
315.600	30.357	
315.700	35.417	
315.800	32.243	
315.900	20.406	
316.000	20.272	
316.100	18.313	
316.200	30.976	
316.300	36.515	
316.400	22.398	
316.500	44.485	
316.600	36.151	
316.700	33.989	
316.800	12.640	
316.900	35.996	
317.000	31.292	
317.100	30.060	
317.200	18.004	
317.300	11.146	
317.400	49.179	
317.500	31.252	
317.600	17.085	
317.700	31.052	
317.800	33.264	
317.900	49.715	
318.000	9.176	
318.100	32.001	
318.200	27.703	
318.300	35.749	
318.400	50.363	
318.500	14.577	
318.600	29.448	
318.700	28.771	
318.800	6.516	
318.900	10.034	
319.000	43.241	
319.100	19.200	
319.200	49.855	
319.300	35.129	
319.400	39.387	
319.500	16.770	
319.600	17.085	
319.700	13.597	
319.800	39.372	
319.900	18.825	
320.000	26.945	
320.100	38.404	
320.200	24.848	
320.300	25.671	
320.400	28.095	
320.500	34.041	
320.600	31.173	
320.700	27.456	
320.800	19.495	
320.900	28.896	
321.000	36.213	
321.100	21.940	
321.200	24.294	
321.300	16.877	
321.400	25.256	
321.500	35.135	
321.600	24.952	
321.700	32.145	
321.800	38.900	
321.900	21.665	
322.000	17.844	
322.100	24.725	
322.200	28.306	
322.300	30.093	
322.400	33.427	
322.500	26.377	
322.600	25.202	
322.700	41.259	
322.800	15.860	
322.900	32.743	
323.000	32.793	
323.100	33.715	
323.200	17.592	
323.300	36.469	
323.400	17.074	
323.500	43.692	
323.600	37.218	
323.700	33.213	
323.800	31.851	
323.900	39.441	
324.000	18.252	
324.100	32.616	
324.200	32.117	
324.300	29.365	
324.400	41.722	
324.500	45.972	
324.600	29.775	
324.700	15.219	
324.800	12.975	
324.900	32.772	
325.000	24.185	
325.100	27.500	
325.200	19.821	
325.300	33.840	
325.400	34.633	
325.500	14.546	
325.600	30.623	
325.700	23.795	
325.800	44.649	
325.900	22.686	
326.000	35.259	
326.100	33.356	
326.200	41.966	
326.300	30.686	
326.400	31.121	
326.500	25.737	
326.600	35.378	
326.700	24.189	
326.800	51.275	
326.900	18.951	
327.000	16.160	
327.100	25.774	
327.200	42.433	
327.300	28.007	
327.400	36.729	
327.500	15.951	
327.600	32.235	
327.700	34.471	
327.800	47.555	
327.900	23.063	
328.000	24.582	
328.100	20.587	
328.200	22.755	
328.300	48.300	
328.400	25.112	
328.500	20.184	
328.600	41.197	
328.700	25.022	
328.800	23.720	
328.900	16.821	
329.000	40.384	
329.100	24.018	
329.200	25.326	
329.300	26.405	
329.400	17.655	
329.500	38.711	
329.600	33.989	
329.700	21.288	
329.800	27.281	
329.900	15.695	
330.000	29.365	
330.100	35.561	
330.200	37.717	
330.300	27.757	
330.400	22.624	
330.500	25.396	
330.600	49.110	
330.700	30.006	
330.800	41.079	
330.900	19.921	
331.000	31.138	
331.100	12.072	
331.200	27.663	
331.300	21.774	
331.400	58.437	
331.500	33.785	
331.600	32.669	
331.700	35.388	
331.800	22.890	
331.900	39.858	
332.000	34.426	
332.100	23.425	
332.200	27.231	
332.300	6.731	
332.400	45.888	
332.500	45.216	
332.600	42.872	
332.700	32.937	
332.800	31.467	
332.900	29.476	
333.000	41.747	
333.100	41.947	
333.200	25.127	
333.300	40.369	
333.400	32.724	
333.500	25.127	
333.600	31.573	
333.700	32.784	
333.800	38.877	
333.900	29.944	
334.000	37.398	
334.100	50.484	
334.200	22.455	
334.300	33.067	
334.400	28.751	
334.500	40.528	
334.600	45.912	
334.700	39.885	
334.800	31.481	
334.900	4.568	
335.000	44.423	
335.100	22.806	
335.200	32.260	
335.300	44.311	
335.400	13.309	
335.500	45.361	
335.600	49.467	
335.700	18.488	
335.800	46.404	
335.900	40.514	
336.000	20.342	
336.100	7.575	
336.200	45.425	
336.300	34.682	
336.400	44.024	
336.500	17.692	
336.600	37.869	
336.700	37.866	
336.800	33.736	
336.900	54.915	
337.000	29.866	
337.100	38.672	
337.200	27.658	
337.300	25.347	
337.400	41.779	
337.500	39.259	
337.600	29.049	
337.700	30.367	
337.800	26.513	
337.900	25.910	
338.000	24.998	
338.100	37.094	
338.200	36.051	
338.300	35.288	
338.400	27.792	
338.500	24.300	
338.600	27.720	
338.700	27.803	
338.800	43.478	
338.900	28.332	
339.000	21.925	
339.100	41.713	
339.200	28.850	
339.300	29.676	
339.400	15.783	
339.500	41.009	
339.600	26.022	
339.700	29.936	
339.800	43.186	
339.900	37.342	
340.000	32.327	
340.100	22.148	
340.200	19.880	
340.300	25.036	
340.400	26.941	
340.500	30.758	
340.600	29.874	
340.700	24.435	
340.800	47.331	
340.900	23.442	
341.000	26.999	
341.100	28.197	
341.200	32.362	
341.300	33.928	
341.400	43.465	
341.500	21.860	
341.600	28.428	
341.700	43.099	
341.800	24.256	
341.900	37.228	
342.000	33.780	
342.100	36.486	
342.200	45.939	
342.300	20.188	
342.400	33.074	
342.500	30.742	
342.600	33.792	
342.700	28.545	
342.800	28.710	
342.900	22.788	
343.000	34.864	
343.100	25.512	
343.200	25.675	
343.300	28.051	
343.400	25.982	
343.500	52.933	
343.600	44.522	
343.700	26.806	
343.800	25.180	
343.900	39.741	
344.000	30.901	
344.100	42.391	
344.200	33.871	
344.300	34.647	
344.400	37.849	
344.500	37.824	
344.600	25.008	
344.700	10.781	
344.800	25.728	
344.900	28.313	
345.000	46.258	
345.100	39.078	
345.200	33.025	
345.300	34.512	
345.400	35.705	
345.500	28.031	
345.600	38.061	
345.700	34.582	
345.800	25.791	
345.900	39.668	
346.000	36.055	
346.100	13.477	
346.200	33.024	
346.300	21.025	
346.400	25.447	
346.500	40.952	
346.600	47.820	
346.700	39.031	
346.800	27.196	
346.900	16.963	
347.000	23.371	
347.100	21.628	
347.200	45.674	
347.300	46.585	
347.400	38.003	
347.500	23.453	
347.600	31.767	
347.700	27.445	
347.800	39.019	
347.900	19.568	
348.000	40.594	
348.100	25.983	
348.200	39.783	
348.300	41.792	
348.400	42.824	
348.500	31.580	
348.600	23.962	
348.700	19.489	
348.800	32.592	
348.900	30.688	
349.000	36.852	
349.100	5.325	
349.200	34.901	
349.300	36.417	
349.400	31.245	
349.500	35.508	
349.600	13.445	
349.700	31.436	
349.800	33.295	
349.900	30.478	
350.000	36.493	
350.100	32.689	
350.200	23.517	
350.300	29.670	
350.400	28.554	
350.500	44.552	
350.600	19.242	
350.700	47.531	
350.800	28.030	
350.900	29.205	
351.000	42.564	
351.100	32.482	
351.200	30.703	
351.300	24.224	
351.400	29.554	
351.500	26.739	
351.600	36.374	
351.700	36.585	
351.800	29.661	
351.900	19.399	
352.000	33.576	
352.100	33.559	
352.200	0.588	
352.300	36.052	
352.400	42.008	
352.500	30.424	
352.600	47.490	
352.700	39.600	
352.800	30.824	
352.900	26.089	
353.000	44.340	
353.100	40.966	
353.200	30.909	
353.300	32.748	
353.400	55.922	
353.500	16.442	
353.600	31.074	
353.700	43.457	
353.800	50.732	
353.900	25.293	
354.000	45.132	
354.100	19.402	
354.200	31.430	
354.300	32.160	
354.400	32.730	
354.500	25.534	
354.600	37.077	
354.700	36.855	
354.800	26.648	
354.900	12.579	
355.000	31.577	
355.100	47.914	
355.200	43.185	
355.300	18.059	
355.400	17.660	
355.500	34.904	
355.600	45.133	
355.700	12.405	
355.800	36.286	
355.900	22.117	
356.000	25.917	
356.100	39.911	
356.200	30.175	
356.300	54.252	
356.400	29.860	
356.500	30.763	
356.600	29.828	
356.700	30.717	
356.800	29.073	
356.900	29.222	
357.000	41.401	
357.100	38.111	
357.200	38.199	
357.300	20.365	
357.400	38.950	
357.500	28.219	
357.600	31.545	
357.700	43.519	
357.800	31.621	
357.900	16.460	
358.000	46.956	
358.100	29.305	
358.200	25.668	
358.300	17.123	
358.400	27.924	
358.500	46.145	
358.600	22.350	
358.700	38.831	
358.800	45.485	
358.900	26.470	
359.000	35.142	
359.100	33.275	
359.200	32.252	
359.300	39.643	
359.400	13.614	
359.500	23.919	
359.600	38.521	
359.700	37.780	
359.800	39.036	
359.900	29.683	
360.000	15.741	
360.100	32.903	
360.200	26.690	
360.300	30.785	
360.400	24.330	
360.500	42.008	
360.600	38.831	
360.700	41.494	
360.800	13.790	
360.900	37.084	
361.000	45.016	
361.100	25.778	
361.200	38.353	
361.300	12.248	
361.400	34.374	
361.500	16.761	
361.600	30.853	
361.700	28.906	
361.800	23.029	
361.900	48.626	
362.000	25.191	
362.100	35.666	
362.200	19.206	
362.300	24.002	
362.400	25.293	
362.500	14.264	
362.600	21.655	
362.700	41.409	
362.800	26.171	
362.900	30.802	
363.000	46.024	
363.100	16.194	
363.200	35.473	
363.300	19.057	
363.400	27.605	
363.500	31.247	
363.600	34.624	
363.700	26.834	
363.800	23.670	
363.900	21.030	
364.000	31.160	
364.100	31.113	
364.200	38.526	
364.300	24.771	
364.400	5.211	
364.500	38.787	
364.600	26.060	
364.700	27.020	
364.800	44.415	
364.900	5.434	
365.000	20.718	
365.100	32.550	
365.200	26.604	
365.300	27.985	
365.400	33.118	
365.500	42.742	
365.600	35.458	
365.700	23.601	
365.800	6.607	
365.900	39.145	
366.000	33.728	
366.100	45.188	
366.200	39.688	
366.300	39.769	
366.400	12.648	
366.500	23.539	
366.600	43.428	
366.700	29.472	
366.800	27.108	
366.900	23.563	
367.000	26.900	
367.100	7.365	
367.200	32.050	
367.300	20.486	
367.400	20.210	
367.500	22.939	
367.600	25.527	
367.700	23.126	
367.800	20.374	
367.900	35.599	
368.000	34.873	
368.100	30.250	
368.200	23.398	
368.300	26.801	
368.400	32.895	
368.500	37.526	
368.600	28.724	
368.700	25.827	
368.800	38.289	
368.900	34.260	
369.000	27.446	
369.100	24.596	
369.200	38.697	
369.300	20.062	
369.400	31.142	
369.500	28.784	
369.600	26.440	
369.700	30.426	
369.800	26.037	
369.900	37.216	
370.000	44.671	
370.100	29.590	
370.200	28.347	
370.300	19.801	
370.400	25.353	
370.500	36.456	
370.600	26.288	
370.700	15.794	
370.800	23.555	
370.900	41.470	
371.000	37.248	
371.100	17.871	
371.200	28.345	
371.300	27.304	
371.400	22.318	
371.500	17.576	
371.600	33.517	
371.700	29.322	
371.800	10.016	
371.900	18.949	
372.000	41.312	
372.100	21.310	
372.200	21.846	
372.300	27.436	
372.400	36.710	
372.500	27.525	
372.600	22.643	
372.700	35.072	
372.800	23.182	
372.900	29.487	
373.000	28.271	
373.100	21.085	
373.200	29.345	
373.300	28.921	
373.400	25.098	
373.500	7.885	
373.600	25.939	
373.700	31.809	
373.800	32.935	
373.900	11.462	
374.000	29.230	
374.100	26.919	
374.200	33.413	
374.300	22.174	
374.400	15.390	
374.500	20.351	
374.600	26.666	
374.700	34.945	
374.800	23.535	
374.900	31.616	
375.000	24.200	
375.100	38.899	
375.200	25.460	
375.300	32.539	
375.400	38.812	
375.500	30.187	
375.600	30.787	
375.700	24.461	
375.800	27.918	
375.900	44.295	
376.000	26.297	
376.100	26.477	
376.200	25.256	
376.300	17.393	
376.400	20.884	
376.500	27.675	
376.600	37.931	
376.700	29.134	
376.800	29.317	
376.900	27.088	
377.000	19.916	
377.100	29.472	
377.200	32.638	
377.300	22.785	
377.400	34.457	
377.500	18.725	
377.600	38.888	
377.700	27.609	
377.800	28.429	
377.900	36.964	
378.000	20.766	
378.100	45.694	
378.200	23.135	
378.300	28.598	
378.400	34.610	
378.500	25.084	
378.600	26.607	
378.700	14.419	
378.800	30.521	
378.900	27.526	
379.000	35.119	
379.100	38.128	
379.200	17.868	
379.300	17.811	
379.400	36.539	
379.500	26.195	
379.600	29.072	
379.700	24.779	
379.800	18.293	
379.900	28.781	
380.000	38.029	
380.100	34.077	
380.200	29.704	
380.300	23.960	
380.400	45.190	
380.500	36.970	
380.600	11.134	
380.700	33.685	
380.800	33.342	
380.900	28.339	
381.000	33.616	
381.100	26.893	
381.200	20.707	
381.300	27.368	
381.400	19.623	
381.500	30.727	
381.600	33.405	
381.700	36.902	
381.800	27.341	
381.900	17.356	
382.000	18.483	
382.100	26.807	
382.200	41.481	
382.300	23.627	
382.400	34.284	
382.500	25.698	
382.600	31.262	
382.700	28.317	
382.800	27.985	
382.900	36.699	
383.000	27.286	
383.100	20.723	
383.200	27.524	
383.300	9.710	
383.400	39.796	
383.500	25.532	
383.600	34.907	
383.700	50.593	
383.800	31.417	
383.900	34.880	
384.000	40.448	
384.100	25.319	
384.200	35.380	
384.300	38.232	
384.400	18.364	
384.500	19.143	
384.600	46.912	
384.700	19.467	
384.800	25.816	
384.900	28.128	
385.000	37.966	
385.100	41.443	
385.200	28.739	
385.300	34.669	
385.400	32.102	
385.500	25.153	
385.600	25.389	
385.700	40.528	
385.800	26.891	
385.900	32.346	
386.000	15.728	
386.100	47.092	
386.200	12.851	
386.300	33.837	
386.400	25.336	
386.500	37.816	
386.600	21.218	
386.700	18.446	
386.800	26.480	
386.900	23.673	
387.000	35.619	
387.100	20.749	
387.200	38.082	
387.300	22.638	
387.400	28.285	
387.500	31.677	
387.600	31.433	
387.700	28.530	
387.800	33.682	
387.900	18.012	
388.000	18.047	
388.100	19.180	
388.200	21.954	
388.300	39.125	
388.400	25.058	
388.500	28.344	
388.600	37.919	
388.700	34.532	
388.800	23.619	
388.900	29.451	
389.000	19.695	
389.100	45.496	
389.200	24.126	
389.300	27.593	
389.400	27.727	
389.500	32.510	
389.600	22.371	
389.700	6.038	
389.800	23.816	
389.900	39.844	
390.000	32.922	
390.100	20.547	
390.200	24.846	
390.300	25.284	
390.400	27.189	
390.500	-2.609	
390.600	14.243	
390.700	48.541	
390.800	29.581	
390.900	17.991	
391.000	22.514	
391.100	42.526	
391.200	29.181	
391.300	20.005	
391.400	25.808	
391.500	34.170	
391.600	20.744	
391.700	31.971	
391.800	33.085	
391.900	22.268	
392.000	27.402	
392.100	25.143	
392.200	20.571	
392.300	37.821	
392.400	18.827	
392.500	47.804	
392.600	33.352	
392.700	-0.635	
392.800	44.196	
392.900	16.395	
393.000	57.478	
393.100	16.132	
393.200	43.765	
393.300	28.775	
393.400	41.338	
393.500	22.784	
393.600	35.939	
393.700	35.982	
393.800	35.674	
393.900	27.731	
394.000	24.587	
394.100	29.258	
394.200	27.964	
394.300	30.578	
394.400	28.924	
394.500	25.932	
394.600	18.943	
394.700	19.004	
394.800	20.879	
394.900	33.799	
395.000	28.376	
395.100	24.620	
395.200	-1.661	
395.300	23.687	
395.400	28.854	
395.500	25.576	
395.600	22.788	
395.700	16.148	
395.800	13.851	
395.900	12.996	
396.000	29.251	
396.100	40.444	
396.200	1.022	
396.300	38.217	
396.400	49.963	
396.500	21.777	
396.600	31.933	
396.700	21.351	
396.800	26.291	
396.900	24.342	
397.000	33.067	
397.100	21.946	
397.200	28.932	
397.300	17.977	
397.400	29.669	
397.500	19.637	
397.600	16.001	
397.700	32.387	
397.800	27.569	
397.900	22.715	
398.000	28.673	
398.100	30.104	
398.200	15.025	
398.300	27.155	
398.400	21.101	
398.500	14.400	
398.600	30.068	
398.700	13.210	
398.800	24.173	
398.900	19.069	
399.000	26.217	
399.100	28.006	
399.200	31.989	
399.300	20.881	
399.400	17.688	
399.500	28.838	
399.600	27.988	
399.700	24.137	
399.800	34.877	
399.900	16.564	
400.000	21.165	
400.100	39.051	
400.200	29.274	
400.300	20.435	
400.400	26.794	
400.500	14.700	
400.600	28.793	
400.700	27.549	
400.800	22.010	
400.900	16.742	
401.000	18.174	
401.100	21.279	
401.200	32.076	
401.300	13.904	
401.400	7.037	
401.500	10.914	
401.600	14.872	
401.700	21.026	
401.800	28.842	
401.900	10.888	
402.000	28.443	
402.100	31.509	
402.200	25.779	
402.300	6.428	
402.400	42.648	
402.500	35.083	
402.600	27.106	
402.700	22.538	
402.800	25.825	
402.900	22.338	
403.000	18.899	
403.100	25.141	
403.200	24.901	
403.300	18.684	
403.400	19.303	
403.500	27.876	
403.600	33.023	
403.700	26.712	
403.800	17.314	
403.900	25.647	
404.000	32.331	
404.100	20.400	
404.200	25.806	
404.300	26.855	
404.400	45.878	
404.500	28.348	
404.600	20.878	
404.700	17.257	
404.800	32.629	
404.900	19.570	
405.000	31.617	
405.100	18.043	
405.200	19.291	
405.300	30.134	
405.400	19.926	
405.500	35.477	
405.600	17.563	
405.700	31.182	
405.800	18.653	
405.900	37.663	
406.000	25.095	
406.100	28.553	
406.200	25.697	
406.300	14.174	
406.400	34.729	
406.500	13.623	
406.600	36.855	
406.700	32.755	
406.800	6.750	
406.900	39.919	
407.000	32.954	
407.100	13.321	
407.200	40.040	
407.300	36.256	
407.400	31.117	
407.500	28.258	
407.600	9.730	
407.700	25.161	
407.800	19.896	
407.900	30.932	
408.000	26.003	
408.100	28.011	
408.200	25.513	
408.300	16.944	
408.400	41.931	
408.500	33.173	
408.600	33.144	
408.700	23.639	
408.800	33.018	
408.900	18.201	
409.000	26.046	
409.100	17.311	
409.200	48.256	
409.300	35.400	
409.400	20.978	
409.500	28.260	
409.600	19.701	
409.700	13.738	
409.800	25.887	
409.900	11.708	
410.000	31.682	
410.100	27.056	
410.200	25.334	
410.300	28.501	
410.400	38.452	
410.500	27.018	
410.600	33.462	
410.700	14.381	
410.800	18.904	
410.900	9.083	
411.000	35.496	
411.100	10.048	
411.200	17.307	
411.300	20.051	
411.400	13.428	
411.500	21.447	
411.600	34.918	
411.700	12.105	
411.800	11.443	
411.900	21.950	
412.000	20.955	
412.100	29.517	
412.200	18.041	
412.300	21.777	
412.400	18.423	
412.500	41.074	
412.600	12.872	
412.700	33.330	
412.800	25.251	
412.900	12.358	
413.000	23.762	
413.100	36.506	
413.200	32.477	
413.300	17.760	
413.400	25.052	
413.500	31.001	
413.600	18.749	
413.700	20.708	
413.800	30.549	
413.900	20.896	
414.000	12.545	
414.100	22.286	
414.200	32.496	
414.300	21.306	
414.400	26.420	
414.500	28.876	
414.600	21.498	
414.700	14.707	
414.800	33.874	
414.900	10.373	
415.000	14.042	
415.100	19.746	
415.200	19.624	
415.300	1.789	
415.400	30.173	
415.500	38.765	
415.600	21.747	
415.700	18.726	
415.800	30.885	
415.900	17.335	
416.000	21.010	
416.100	23.539	
416.200	24.649	
416.300	31.675	
416.400	29.291	
416.500	22.672	
416.600	16.416	
416.700	32.997	
416.800	25.747	
416.900	14.563	
417.000	33.177	
417.100	37.621	
417.200	5.534	
417.300	24.246	
417.400	16.983	
417.500	13.711	
417.600	16.948	
417.700	25.747	
417.800	27.638	
417.900	8.899	
418.000	14.897	
418.100	27.087	
418.200	24.704	
418.300	11.965	
418.400	30.810	
418.500	35.389	
418.600	25.151	
418.700	42.367	
418.800	33.645	
418.900	14.906	
419.000	11.128	
419.100	22.583	
419.200	30.625	
419.300	32.659	
419.400	-5.939	
419.500	19.328	
419.600	25.702	
419.700	12.002	
419.800	20.178	
419.900	24.142	
420.000	13.926	
420.100	28.700	
420.200	36.301	
420.300	27.715	
420.400	24.234	
420.500	24.686	
420.600	22.899	
420.700	11.488	
420.800	19.933	
420.900	21.330	
421.000	22.916	
421.100	30.303	
421.200	27.037	
421.300	20.870	
421.400	29.104	
421.500	38.408	
421.600	14.280	
421.700	13.711	
421.800	15.249	
421.900	21.130	
422.000	19.112	
422.100	24.636	
422.200	28.953	
422.300	23.829	
422.400	12.624	
422.500	44.584	
422.600	31.012	
422.700	31.182	
422.800	31.350	
422.900	11.366	
423.000	36.978	
423.100	25.736	
423.200	29.176	
423.300	24.525	
423.400	34.435	
423.500	24.010	
423.600	24.565	
423.700	17.633	
423.800	44.290	
423.900	19.487	
424.000	26.668	
424.100	26.002	
424.200	30.350	
424.300	19.366	
424.400	47.387	
424.500	38.236	
424.600	38.404	
424.700	32.116	
424.800	12.933	
424.900	28.944	
425.000	25.888	
425.100	19.928	
425.200	16.633	
425.300	21.761	
425.400	25.008	
425.500	32.518	
425.600	16.215	
425.700	18.721	
425.800	32.998	
425.900	29.746	
426.000	26.407	
426.100	30.323	
426.200	25.256	
426.300	31.312	
426.400	20.446	
426.500	39.198	
426.600	9.518	
426.700	33.268	
426.800	30.537	
426.900	20.966	
427.000	22.737	
427.100	2.810	
427.200	11.898	
427.300	45.599	
427.400	32.474	
427.500	40.523	
427.600	23.814	
427.700	17.798	
427.800	28.389	
427.900	33.870	
428.000	7.203	
428.100	20.966	
428.200	29.481	
428.300	27.087	
428.400	49.500	
428.500	23.725	
428.600	29.577	
428.700	37.317	
428.800	26.139	
428.900	15.835	
429.000	24.564	
429.100	26.951	
429.200	42.322	
429.300	18.718	
429.400	21.042	
429.500	51.127	
429.600	38.711	
429.700	11.909	
429.800	30.786	
429.900	20.675	
430.000	36.805	
430.100	32.944	
430.200	20.094	
430.300	29.987	
430.400	20.950	
430.500	19.900	
430.600	36.008	
430.700	20.488	
430.800	24.595	
430.900	13.380	
431.000	27.748	
431.100	23.025	
431.200	35.550	
431.300	30.400	
431.400	25.391	
431.500	32.169	
431.600	17.699	
431.700	-5.652	
431.800	31.830	
431.900	19.264	
432.000	14.584	
432.100	30.071	
432.200	19.357	
432.300	28.149	
432.400	38.418	
432.500	27.343	
432.600	5.617	
432.700	15.732	
432.800	25.869	
432.900	16.644	
433.000	24.967	
433.100	22.230	
433.200	39.537	
433.300	35.370	
433.400	41.259	
433.500	29.968	
433.600	34.321	
433.700	26.356	
433.800	24.039	
433.900	18.486	
434.000	11.487	
434.100	19.977	
434.200	29.362	
434.300	22.924	
434.400	13.999	
434.500	16.145	
434.600	32.564	
434.700	16.862	
434.800	38.031	
434.900	39.797	
435.000	26.826	
435.100	17.537	
435.200	21.360	
435.300	31.738	
435.400	21.486	
435.500	25.385	
435.600	21.248	
435.700	36.052	
435.800	28.716	
435.900	18.763	
436.000	28.568	
436.100	28.364	
436.200	31.337	
436.300	21.676	
436.400	20.824	
436.500	19.357	
436.600	35.809	
436.700	25.146	
436.800	11.863	
436.900	30.823	
437.000	16.616	
437.100	23.017	
437.200	13.808	
437.300	34.488	
437.400	31.204	
437.500	21.804	
437.600	14.283	
437.700	36.257	
437.800	14.111	
437.900	33.338	
438.000	18.519	
438.100	30.344	
438.200	37.117	
438.300	23.034	
438.400	35.408	
438.500	-7.437	
438.600	14.172	
438.700	29.952	
438.800	28.651	
438.900	24.017	
439.000	31.619	
439.100	6.202	
439.200	34.790	
439.300	6.207	
439.400	38.695	
439.500	24.041	
439.600	21.422	
439.700	7.563	
439.800	5.010	
439.900	35.245	
440.000	45.100	
440.100	33.192	
440.200	34.794	
440.300	38.263	
440.400	23.083	
440.500	10.535	
440.600	21.055	
440.700	26.113	
440.800	30.727	
440.900	25.479	
441.000	22.964	
441.100	36.132	
441.200	29.504	
441.300	41.185	
441.400	17.061	
441.500	34.806	
441.600	30.469	
441.700	32.539	
441.800	25.010	
441.900	42.736	
442.000	27.588	
442.100	21.891	
442.200	31.342	
442.300	41.478	
442.400	43.627	
442.500	20.094	
442.600	32.620	
442.700	35.425	
442.800	26.062	
442.900	27.524	
443.000	18.079	
443.100	17.727	
443.200	36.214	
443.300	18.710	
443.400	31.198	
443.500	33.914	
443.600	30.171	
443.700	26.079	
443.800	39.537	
443.900	20.273	
444.000	10.202	
444.100	24.378	
444.200	16.173	
444.300	26.832	
444.400	23.460	
444.500	34.286	
444.600	28.808	
444.700	43.316	
444.800	19.414	
444.900	5.768	
445.000	25.052	
445.100	11.834	
445.200	33.995	
445.300	30.197	
445.400	24.635	
445.500	27.787	
445.600	23.134	
445.700	28.591	
445.800	15.433	
445.900	40.134	
446.000	29.290	
446.100	34.444	
446.200	29.436	
446.300	21.464	
446.400	20.199	
446.500	19.078	
446.600	18.580	
446.700	27.851	
446.800	43.330	
446.900	42.499	
447.000	27.340	
447.100	19.213	
447.200	28.116	
447.300	44.777	
447.400	16.140	
447.500	13.906	
447.600	28.780	
447.700	28.412	
447.800	22.723	
447.900	31.014	
448.000	20.416	
448.100	24.939	
448.200	9.314	
448.300	26.944	
448.400	18.500	
448.500	41.100	
448.600	55.518	
448.700	26.871	
448.800	31.470	
448.900	21.476	
449.000	32.497	
449.100	36.471	
449.200	20.592	
449.300	28.529	
449.400	47.109	
449.500	4.194	
449.600	24.819	
449.700	29.075	
449.800	27.936	
449.900	33.558	
450.000	23.909	
450.100	21.571	
450.200	32.659	
450.300	12.105	
450.400	23.408	
450.500	24.755	
450.600	27.722	
450.700	24.833	
450.800	22.086	
450.900	26.418	
451.000	29.813	
451.100	20.270	
451.200	30.360	
451.300	29.469	
451.400	37.582	
451.500	14.558	
451.600	26.248	
451.700	26.288	
451.800	15.878	
451.900	8.730	
452.000	33.098	
452.100	27.924	
452.200	24.507	
452.300	38.573	
452.400	27.938	
452.500	24.412	
452.600	16.813	
452.700	23.766	
452.800	27.665	
452.900	17.969	
453.000	30.227	
453.100	11.686	
453.200	28.886	
453.300	28.673	
453.400	39.770	
453.500	35.862	
453.600	26.140	
453.700	12.069	
453.800	4.563	
453.900	25.591	
454.000	33.435	
454.100	13.779	
454.200	23.389	
454.300	19.068	
454.400	41.669	
454.500	10.901	
454.600	15.794	
454.700	48.403	
454.800	19.267	
454.900	34.394	
455.000	34.111	
455.100	17.734	
455.200	36.982	
455.300	32.621	
455.400	14.701	
455.500	39.703	
455.600	11.458	
455.700	16.484	
455.800	38.622	
455.900	14.463	
456.000	4.657	
456.100	33.433	
456.200	25.247	
456.300	39.243	
456.400	27.114	
456.500	17.754	
456.600	27.253	
456.700	19.998	
456.800	23.525	
456.900	13.247	
457.000	32.676	
457.100	39.035	
457.200	24.988	
457.300	26.782	
457.400	29.812	
457.500	11.808	
457.600	42.855	
457.700	35.119	
457.800	24.275	
457.900	21.363	
458.000	26.378	
458.100	17.290	
458.200	28.557	
458.300	12.975	
458.400	34.901	
458.500	28.387	
458.600	41.554	
458.700	24.593	
458.800	23.293	
458.900	20.806	
459.000	29.868	
459.100	27.125	
459.200	22.494	
459.300	31.533	
459.400	28.048	
459.500	18.811	
459.600	31.590	
459.700	33.129	
459.800	19.452	
459.900	23.484	
460.000	22.671	
460.100	32.480	
460.200	9.578	
460.300	26.001	
460.400	16.802	
460.500	15.334	
460.600	23.716	
460.700	31.366	
460.800	12.455	
460.900	25.586	
461.000	16.615	
461.100	21.647	
461.200	32.697	
461.300	41.139	
461.400	24.024	
461.500	25.158	
461.600	42.861	
461.700	33.336	
461.800	18.997	
461.900	17.867	
462.000	20.661	
462.100	34.094	
462.200	17.069	
462.300	18.988	
462.400	12.375	
462.500	41.704	
462.600	22.036	
462.700	19.686	
462.800	27.442	
462.900	19.037	
463.000	16.695	
463.100	49.613	
463.200	32.511	
463.300	32.221	
463.400	19.970	
463.500	15.338	
463.600	23.769	
463.700	17.395	
463.800	30.403	
463.900	36.446	
464.000	18.096	
464.100	26.946	
464.200	23.382	
464.300	11.882	
464.400	1.228	
464.500	35.057	
464.600	32.737	
464.700	47.739	
464.800	20.443	
464.900	28.859	
465.000	24.668	
465.100	34.467	
465.200	19.364	
465.300	16.286	
465.400	25.851	
465.500	23.913	
465.600	9.028	
465.700	28.158	
465.800	28.882	
465.900	26.997	
466.000	30.394	
466.100	32.764	
466.200	23.331	
466.300	31.782	
466.400	15.502	
466.500	17.284	
466.600	16.124	
466.700	17.096	
466.800	44.398	
466.900	29.866	
467.000	20.428	
467.100	28.458	
467.200	29.815	
467.300	40.083	
467.400	47.123	
467.500	24.296	
467.600	27.006	
467.700	28.546	
467.800	15.972	
467.900	15.369	
468.000	19.984	
468.100	27.426	
468.200	41.034	
468.300	27.571	
468.400	43.177	
468.500	39.878	
468.600	10.884	
468.700	17.271	
468.800	35.744	
468.900	18.057	
469.000	5.427	
469.100	40.407	
469.200	10.480	
469.300	45.442	
469.400	29.733	
469.500	47.357	
469.600	27.805	
469.700	24.731	
469.800	27.245	
469.900	23.222	
470.000	40.014	
470.100	30.082	
470.200	27.412	
470.300	17.592	
470.400	17.698	
470.500	28.974	
470.600	11.643	
470.700	43.821	
470.800	15.937	
470.900	40.717	
471.000	25.240	
471.100	28.673	
471.200	32.722	
471.300	31.834	
471.400	28.754	
471.500	19.025	
471.600	27.122	
471.700	40.603	
471.800	35.172	
471.900	20.448	
472.000	25.361	
472.100	42.017	
472.200	21.170	
472.300	33.395	
472.400	30.876	
472.500	42.127	
472.600	19.784	
472.700	27.670	
472.800	42.489	
472.900	29.711	
473.000	36.627	
473.100	41.568	
473.200	43.350	
473.300	17.834	
473.400	22.971	
473.500	31.356	
473.600	36.298	
473.700	51.675	
473.800	41.401	
473.900	22.935	
474.000	21.043	
474.100	34.987	
474.200	23.288	
474.300	32.484	
474.400	30.047	
474.500	13.678	
474.600	35.050	
474.700	29.418	
474.800	30.255	
474.900	24.384	
475.000	21.610	
475.100	32.375	
475.200	40.970	
475.300	36.772	
475.400	10.798	
475.500	33.001	
475.600	30.939	
475.700	31.362	
475.800	41.115	
475.900	28.628	
476.000	33.955	
476.100	19.859	
476.200	31.457	
476.300	4.567	
476.400	30.071	
476.500	33.218	
476.600	35.957	
476.700	32.462	
476.800	42.889	
476.900	15.211	
477.000	36.321	
477.100	23.619	
477.200	36.911	
477.300	18.189	
477.400	22.176	
477.500	10.814	
477.600	25.535	
477.700	33.028	
477.800	36.584	
477.900	28.339	
478.000	19.541	
478.100	33.239	
478.200	28.150	
478.300	19.130	
478.400	39.771	
478.500	15.621	
478.600	45.146	
478.700	44.669	
478.800	29.107	
478.900	13.250	
479.000	30.514	
479.100	48.974	
479.200	31.856	
479.300	18.931	
479.400	27.912	
479.500	36.888	
479.600	31.508	
479.700	14.568	
479.800	30.332	
479.900	19.285	
480.000	22.341	
480.100	16.654	
480.200	24.917	
480.300	43.755	
480.400	28.846	
480.500	22.298	
480.600	26.679	
480.700	18.163	
480.800	31.050	
480.900	26.591	
481.000	16.994	
481.100	27.588	
481.200	30.679	
481.300	25.052	
481.400	25.669	
481.500	25.638	
481.600	23.617	
481.700	17.166	
481.800	55.682	
481.900	52.210	
482.000	28.331	
482.100	30.355	
482.200	20.759	
482.300	22.056	
482.400	26.738	
482.500	29.482	
482.600	19.363	
482.700	30.299	
482.800	27.832	
482.900	27.892	
483.000	38.546	
483.100	19.027	
483.200	29.003	
483.300	19.037	
483.400	31.325	
483.500	24.215	
483.600	6.692	
483.700	15.977	
483.800	44.145	
483.900	18.632	
484.000	25.274	
484.100	42.393	
484.200	22.349	
484.300	40.339	
484.400	35.198	
484.500	15.117	
484.600	40.542	
484.700	38.851	
484.800	33.210	
484.900	33.986	
485.000	23.745	
485.100	31.316	
485.200	40.213	
485.300	28.306	
485.400	25.829	
485.500	37.168	
485.600	28.089	
485.700	39.059	
485.800	32.319	
485.900	24.731	
486.000	35.990	
486.100	36.673	
486.200	21.724	
486.300	44.661	
486.400	18.788	
486.500	12.381	
486.600	32.253	
486.700	12.436	
486.800	33.654	
486.900	27.673	
487.000	28.914	
487.100	23.313	
487.200	28.552	
487.300	28.342	
487.400	45.101	
487.500	20.242	
487.600	24.323	
487.700	31.047	
487.800	31.907	
487.900	28.132	
488.000	33.187	
488.100	30.270	
488.200	32.534	
488.300	23.679	
488.400	32.951	
488.500	25.945	
488.600	28.510	
488.700	35.339	
488.800	47.228	
488.900	24.845	
489.000	24.010	
489.100	33.379	
489.200	46.718	
489.300	47.602	
489.400	35.818	
489.500	23.186	
489.600	27.446	
489.700	38.421	
489.800	36.012	
489.900	39.720	
490.000	17.022	
490.100	23.326	
490.200	28.643	
490.300	25.606	
490.400	35.998	
490.500	34.328	
490.600	32.934	
490.700	28.045	
490.800	45.424	
490.900	26.994	
491.000	24.127	
491.100	32.869	
491.200	4.414	
491.300	34.237	
491.400	25.014	
491.500	34.540	
491.600	36.248	
491.700	38.357	
491.800	31.051	
491.900	32.969	
492.000	39.697	
492.100	37.315	
492.200	39.151	
492.300	24.545	
492.400	31.098	
492.500	26.452	
492.600	36.771	
492.700	46.149	
492.800	18.776	
492.900	17.551	
493.000	37.527	
493.100	37.790	
493.200	30.678	
493.300	24.184	
493.400	23.855	
493.500	46.563	
493.600	33.751	
493.700	34.001	
493.800	37.494	
493.900	40.142	
494.000	40.183	
494.100	13.386	
494.200	18.380	
494.300	15.860	
494.400	31.339	
494.500	40.463	
494.600	13.481	
494.700	22.569	
494.800	40.838	
494.900	24.289	
495.000	39.786	
495.100	32.477	
495.200	48.730	
495.300	31.081	
495.400	61.305	
495.500	27.945	
495.600	20.314	
495.700	28.805	
495.800	37.895	
495.900	29.331	
496.000	29.685	
496.100	28.695	
496.200	18.748	
496.300	39.901	
496.400	18.366	
496.500	39.173	
496.600	27.433	
496.700	14.681	
496.800	17.701	
496.900	27.284	
497.000	31.953	
497.100	38.779	
497.200	30.199	
497.300	27.225	
497.400	25.375	
497.500	43.059	
497.600	42.112	
497.700	16.571	
497.800	49.613	
497.900	19.511	
498.000	19.521	
498.100	29.315	
498.200	40.502	
498.300	34.236	
498.400	29.225	
498.500	30.855	
498.600	24.093	
498.700	11.040	
498.800	42.808	
498.900	19.529	
499.000	45.221	
499.100	32.810	
499.200	31.525	
499.300	25.741	
499.400	28.596	
499.500	35.399	
499.600	28.150	
499.700	40.066	
499.800	29.657	
499.900	15.739	
500.000	27.953	
500.100	30.299	
500.200	29.285	
500.300	26.470	
500.400	32.627	
500.500	26.628	
500.600	48.709	
500.700	18.473	
500.800	24.277	
500.900	22.278	
501.000	36.150	
501.100	43.716	
501.200	34.856	
501.300	20.649	
501.400	23.226	
501.500	23.805	
501.600	12.595	
501.700	55.313	
501.800	34.973	
501.900	7.927	
502.000	39.089	
502.100	34.178	
502.200	27.060	
502.300	13.764	
502.400	46.353	
502.500	17.945	
502.600	13.269	
502.700	16.874	
502.800	55.139	
502.900	22.338	
503.000	33.951	
503.100	30.581	
503.200	21.407	
503.300	16.391	
503.400	50.213	
503.500	13.881	
503.600	24.531	
503.700	33.323	
503.800	34.253	
503.900	17.850	
504.000	44.967	
504.100	37.310	
504.200	44.514	
504.300	37.788	
504.400	24.099	
504.500	26.036	
504.600	38.604	
504.700	20.101	
504.800	21.894	
504.900	23.146	
505.000	28.038	
505.100	29.777	
505.200	36.251	
505.300	38.583	
505.400	24.978	
505.500	34.819	
505.600	28.347	
505.700	27.486	
505.800	20.540	
505.900	24.189	
506.000	22.939	
506.100	34.808	
506.200	19.771	
506.300	20.000	
506.400	19.401	
506.500	40.463	
506.600	21.340	
506.700	41.844	
506.800	22.766	
506.900	12.135	
507.000	30.580	
507.100	36.672	
507.200	14.774	
507.300	17.825	
507.400	26.986	
507.500	24.869	
507.600	34.712	
507.700	15.594	
507.800	40.019	
507.900	15.118	
508.000	30.391	
508.100	35.289	
508.200	6.936	
508.300	19.102	
508.400	40.076	
508.500	11.849	
508.600	28.349	
508.700	23.388	
508.800	26.611	
508.900	26.306	
509.000	21.168	
509.100	18.268	
509.200	30.268	
509.300	39.884	
509.400	7.066	
509.500	17.333	
509.600	22.488	
509.700	34.674	
509.800	25.807	
509.900	21.612	
510.000	32.121	
510.100	28.482	
510.200	17.905	
510.300	33.719	
510.400	45.925	
510.500	10.049	
510.600	21.207	
510.700	19.990	
510.800	37.085	
510.900	23.412	
511.000	35.416	
511.100	21.562	
511.200	11.941	
511.300	36.721	
511.400	25.037	
511.500	43.130	
511.600	38.617	
511.700	28.357	
511.800	43.921	
511.900	12.213	
512.000	7.873	
512.100	39.309	
512.200	38.750	
512.300	32.405	
512.400	7.297	
512.500	30.561	
512.600	34.112	
512.700	35.226	
512.800	29.618	
512.900	27.567	
513.000	47.736	
513.100	24.890	
513.200	30.262	
513.300	7.148	
513.400	39.526	
513.500	23.206	
513.600	28.228	
513.700	26.799	
513.800	37.495	
513.900	34.919	
514.000	29.587	
514.100	19.844	
514.200	27.065	
514.300	35.346	
514.400	23.498	
514.500	26.451	
514.600	24.505	
514.700	8.356	
514.800	21.169	
514.900	42.117	
515.000	43.414	
515.100	14.797	
515.200	30.622	
515.300	23.583	
515.400	43.617	
515.500	8.363	
515.600	25.888	
515.700	28.752	
515.800	35.209	
515.900	18.640	
516.000	27.322	
516.100	31.678	
516.200	20.753	
516.300	38.752	
516.400	42.676	
516.500	32.860	
516.600	25.674	
516.700	18.173	
516.800	32.518	
516.900	23.280	
517.000	27.730	
517.100	29.484	
517.200	23.105	
517.300	41.218	
517.400	9.502	
517.500	26.857	
517.600	23.706	
517.700	25.508	
517.800	13.215	
517.900	25.023	
518.000	31.557	
518.100	11.708	
518.200	22.952	
518.300	48.298	
518.400	13.801	
518.500	41.116	
518.600	32.526	
518.700	12.696	
518.800	34.936	
518.900	34.170	
519.000	11.632	
519.100	29.943	
519.200	40.185	
519.300	26.357	
519.400	35.599	
519.500	24.629	
519.600	35.707	
519.700	32.623	
519.800	30.796	
519.900	16.984	
520.000	24.138	
520.100	41.899	
520.200	39.596	
520.300	2.345	
520.400	38.620	
520.500	40.284	
520.600	31.640	
520.700	40.168	
520.800	26.363	
520.900	33.072	
521.000	36.140	
521.100	3.175	
521.200	33.888	
521.300	40.807	
521.400	37.731	
521.500	15.524	
521.600	24.322	
521.700	33.059	
521.800	27.678	
521.900	16.249	
522.000	29.072	
522.100	28.787	
522.200	27.789	
522.300	30.944	
522.400	19.131	
522.500	26.125	
522.600	23.407	
522.700	33.685	
522.800	45.398	
522.900	29.723	
523.000	18.174	
523.100	27.981	
523.200	42.952	
523.300	17.889	
523.400	29.958	
523.500	38.710	
523.600	22.987	
523.700	7.019	
523.800	14.578	
523.900	23.930	
524.000	20.408	
524.100	36.657	
524.200	40.043	
524.300	20.898	
524.400	31.752	
524.500	30.825	
524.600	27.009	
524.700	20.117	
524.800	14.603	
524.900	49.165	
525.000	26.831	
525.100	24.509	
525.200	32.081	
525.300	22.705	
525.400	27.303	
525.500	17.642	
525.600	20.744	
525.700	20.456	
525.800	22.587	
525.900	19.480	
526.000	16.935	
526.100	30.593	
526.200	26.680	
526.300	27.982	
526.400	28.155	
526.500	11.725	
526.600	33.013	
526.700	44.398	
526.800	35.660	
526.900	18.424	
527.000	41.048	
527.100	30.695	
527.200	30.389	
527.300	31.436	
527.400	39.208	
527.500	37.267	
527.600	31.592	
527.700	34.992	
527.800	41.252	
527.900	28.939	
528.000	25.145	
528.100	30.647	
528.200	27.503	
528.300	29.809	
528.400	24.841	
528.500	20.829	
528.600	33.558	
528.700	26.635	
528.800	17.110	
528.900	28.388	
529.000	27.203	
529.100	33.579	
529.200	20.972	
529.300	21.668	
529.400	16.250	
529.500	31.257	
529.600	7.244	
529.700	24.765	
529.800	41.283	
529.900	11.044	
530.000	27.816	
530.100	16.977	
530.200	30.643	
530.300	9.172	
530.400	32.452	
530.500	26.792	
530.600	33.194	
530.700	22.241	
530.800	13.518	
530.900	19.510	
531.000	27.943	
531.100	22.770	
531.200	25.876	
531.300	25.625	
531.400	45.842	
531.500	28.114	
531.600	29.559	
531.700	19.127	
531.800	26.051	
531.900	27.729	
532.000	15.106	
532.100	23.930	
532.200	37.597	
532.300	26.989	
532.400	18.498	
532.500	33.158	
532.600	26.977	
532.700	49.904	
532.800	23.273	
532.900	28.280	
533.000	25.122	
533.100	28.735	
533.200	36.721	
533.300	37.653	
533.400	14.908	
533.500	33.138	
533.600	18.077	
533.700	40.986	
533.800	35.748	
533.900	21.754	
534.000	21.543	
534.100	25.097	
534.200	21.530	
534.300	18.966	
534.400	32.529	
534.500	28.103	
534.600	50.200	
534.700	22.192	
534.800	16.245	
534.900	33.529	
535.000	28.743	
535.100	32.099	
535.200	31.724	
535.300	35.613	
535.400	30.003	
535.500	26.449	
535.600	20.126	
535.700	24.391	
535.800	19.352	
535.900	4.676	
536.000	36.122	
536.100	29.557	
536.200	17.307	
536.300	34.949	
536.400	16.735	
536.500	27.740	
536.600	38.509	
536.700	29.823	
536.800	24.962	
536.900	46.298	
537.000	9.479	
537.100	37.568	
537.200	38.322	
537.300	28.565	
537.400	30.093	
537.500	26.114	
537.600	30.406	
537.700	16.518	
537.800	27.443	
537.900	20.624	
538.000	18.223	
538.100	30.684	
538.200	19.752	
538.300	18.851	
538.400	27.578	
538.500	23.850	
538.600	20.640	
538.700	27.176	
538.800	36.933	
538.900	20.521	
539.000	29.963	
539.100	6.812	
539.200	21.933	
539.300	18.170	
539.400	18.367	
539.500	21.346	
539.600	25.782	
539.700	21.941	
539.800	26.139	
539.900	34.057	
540.000	12.537	
540.100	22.703	
540.200	47.171	
540.300	21.832	
540.400	25.648	
540.500	8.222	
540.600	9.131	
540.700	21.922	
540.800	32.252	
540.900	29.412	
541.000	-1.906	
541.100	6.473	
541.200	16.671	
541.300	14.254	
541.400	32.934	
541.500	34.270	
541.600	6.025	
541.700	19.006	
541.800	10.737	
541.900	24.688	
542.000	29.907	
542.100	39.558	
542.200	33.185	
542.300	27.237	
542.400	23.469	
542.500	20.398	
542.600	23.154	
542.700	27.361	
542.800	16.417	
542.900	33.174	
543.000	23.791	
543.100	23.721	
543.200	24.412	
543.300	15.355	
543.400	41.417	
543.500	13.208	
543.600	15.772	
543.700	19.843	
543.800	17.886	
543.900	25.393	
544.000	9.699	
544.100	10.850	
544.200	29.183	
544.300	36.320	
544.400	9.602	
544.500	31.415	
544.600	21.047	
544.700	6.744	
544.800	20.376	
544.900	1.559	
545.000	51.223	
545.100	36.105	
545.200	16.357	
545.300	28.755	
545.400	22.445	
545.500	20.253	
545.600	35.984	
545.700	14.413	
545.800	18.447	
545.900	25.923	
546.000	22.748	
546.100	13.552	
546.200	36.224	
546.300	13.495	
546.400	18.679	
546.500	12.503	
546.600	18.653	
546.700	23.516	
546.800	13.916	
546.900	27.079	
547.000	35.303	
547.100	18.862	
547.200	27.084	
547.300	19.019	
547.400	17.903	
547.500	7.943	
547.600	35.056	
547.700	9.842	
547.800	14.989	
547.900	19.371	
548.000	26.911	
548.100	18.108	
548.200	32.299	
548.300	24.530	
548.400	44.536	
548.500	47.960	
548.600	3.499	
548.700	39.958	
548.800	20.117	
548.900	32.607	
549.000	24.077	
549.100	32.064	
549.200	38.533	
549.300	14.838	
549.400	23.930	
549.500	21.402	
549.600	42.105	
549.700	28.935	
549.800	17.028	
549.900	24.811	
550.000	34.435	
550.100	30.051	
550.200	22.616	
550.300	22.047	
550.400	16.647	
550.500	36.999	
550.600	26.579	
550.700	25.196	
550.800	29.195	
550.900	23.963	
551.000	25.983	
551.100	29.428	
551.200	25.253	
551.300	22.838	
551.400	11.543	
551.500	25.413	
551.600	25.254	
551.700	25.114	
551.800	41.769	
551.900	25.090	
552.000	26.953	
552.100	24.815	
552.200	38.183	
552.300	32.298	
552.400	31.728	
552.500	28.613	
552.600	21.027	
552.700	31.869	
552.800	26.074	
552.900	16.831	
553.000	31.071	
553.100	20.109	
553.200	37.074	
553.300	20.799	
553.400	33.680	
553.500	4.718	
553.600	37.099	
553.700	25.170	
553.800	35.109	
553.900	23.711	
554.000	36.955	
554.100	31.746	
554.200	23.917	
554.300	38.010	
554.400	42.020	
554.500	41.345	
554.600	35.811	
554.700	37.627	
554.800	27.709	
554.900	32.917	
555.000	25.497	
555.100	18.477	
555.200	24.191	
555.300	31.824	
555.400	16.552	
555.500	23.614	
555.600	37.495	
555.700	32.889	
555.800	30.583	
555.900	27.719	
556.000	29.215	
556.100	28.833	
556.200	19.278	
556.300	22.452	
556.400	36.004	
556.500	26.876	
556.600	39.113	
556.700	35.948	
556.800	35.354	
556.900	31.951	
557.000	14.111	
557.100	32.276	
557.200	15.115	
557.300	29.221	
557.400	24.504	
557.500	21.754	
557.600	35.053	
557.700	17.865	
557.800	25.138	
557.900	18.475	
558.000	24.153	
558.100	23.331	
558.200	31.824	
558.300	44.433	
558.400	18.016	
558.500	32.327	
558.600	25.852	
558.700	22.459	
558.800	25.974	
558.900	22.853	
559.000	33.076	
559.100	28.818	
559.200	34.470	
559.300	40.905	
559.400	22.687	
559.500	21.596	
559.600	28.629	
559.700	17.306	
559.800	29.046	
559.900	39.412	
560.000	25.325	
560.100	37.217	
560.200	31.984	
560.300	21.678	
560.400	14.168	
560.500	20.347	
560.600	47.260	
560.700	26.855	
560.800	24.337	
560.900	27.278	
561.000	33.022	
561.100	43.935	
561.200	22.811	
561.300	18.919	
561.400	19.499	
561.500	12.895	
561.600	43.673	
561.700	24.549	
561.800	28.698	
561.900	7.408	
562.000	31.222	
562.100	37.759	
562.200	18.151	
562.300	29.097	
562.400	24.502	
562.500	36.398	
562.600	23.982	
562.700	19.287	
562.800	26.629	
562.900	26.448	
563.000	30.780	
563.100	26.711	
563.200	46.614	
563.300	31.630	
563.400	24.559	
563.500	20.483	
563.600	35.897	
563.700	30.112	
563.800	24.244	
563.900	32.960	
564.000	7.706	
564.100	31.234	
564.200	28.729	
564.300	35.192	
564.400	16.381	
564.500	14.947	
564.600	29.449	
564.700	35.581	
564.800	42.549	
564.900	17.381	
565.000	14.400	
565.100	24.677	
565.200	39.153	
565.300	25.797	
565.400	48.349	
565.500	24.161	
565.600	15.873	
565.700	23.857	
565.800	31.967	
565.900	5.313	
566.000	38.220	
566.100	24.943	
566.200	28.766	
566.300	22.213	
566.400	15.580	
566.500	18.243	
566.600	39.203	
566.700	28.090	
566.800	15.838	
566.900	13.726	
567.000	33.949	
567.100	10.923	
567.200	27.978	
567.300	23.688	
567.400	22.868	
567.500	32.891	
567.600	31.130	
567.700	30.933	
567.800	23.221	
567.900	19.980	
568.000	4.969	
568.100	22.760	
568.200	49.060	
568.300	20.265	
568.400	24.566	
568.500	23.077	
568.600	32.812	
568.700	24.509	
568.800	33.856	
568.900	51.159	
569.000	28.451	
569.100	29.082	
569.200	7.816	
569.300	24.475	
569.400	31.725	
569.500	32.915	
569.600	25.054	
569.700	35.608	
569.800	40.489	
569.900	28.772	
570.000	19.238	
570.100	22.939	
570.200	15.487	
570.300	17.314	
570.400	22.237	
570.500	24.601	
570.600	30.281	
570.700	26.233	
570.800	26.149	
570.900	17.072	
571.000	22.490	
571.100	36.743	
571.200	29.581	
571.300	11.358	
571.400	20.738	
571.500	20.469	
571.600	19.359	
571.700	32.009	
571.800	21.794	
571.900	33.921	
572.000	32.159	
572.100	16.534	
572.200	33.523	
572.300	0.249	
572.400	27.095	
572.500	18.610	
572.600	44.889	
572.700	23.415	
572.800	21.219	
572.900	32.685	
573.000	27.165	
573.100	28.678	
573.200	31.865	
573.300	32.822	
573.400	13.716	
573.500	22.829	
573.600	24.242	
573.700	29.783	
573.800	18.710	
573.900	7.999	
574.000	8.338	
574.100	29.640	
574.200	35.290	
574.300	22.790	
574.400	13.552	
574.500	24.185	
574.600	23.995	
574.700	28.415	
574.800	30.106	
574.900	13.835	
575.000	23.504	
575.100	28.110	
575.200	39.107	
575.300	19.677	
575.400	30.038	
575.500	39.300	
575.600	16.809	
575.700	35.054	
575.800	35.298	
575.900	7.588	
576.000	24.212	
576.100	35.723	
576.200	26.702	
576.300	18.334	
576.400	26.398	
576.500	26.552	
576.600	20.118	
576.700	37.242	
576.800	35.731	
576.900	26.154	
577.000	22.454	
577.100	15.566	
577.200	11.886	
577.300	31.365	
577.400	32.432	
577.500	38.527	
577.600	17.297	
577.700	25.702	
577.800	24.017	
577.900	29.867	
578.000	30.382	
578.100	12.544	
578.200	7.588	
578.300	29.459	
578.400	26.670	
578.500	22.056	
578.600	28.704	
578.700	27.910	
578.800	40.797	
578.900	14.511	
579.000	40.392	
579.100	36.942	
579.200	28.411	
579.300	21.373	
579.400	25.066	
579.500	15.119	
579.600	47.171	
579.700	10.831	
579.800	29.324	
579.900	30.570	
580.000	19.927	
580.100	8.498	
580.200	32.144	
580.300	25.477	
580.400	35.021	
580.500	15.120	
580.600	1.337	
580.700	30.464	
580.800	25.131	
580.900	27.729	
581.000	34.248	
581.100	20.531	
581.200	30.722	
581.300	30.864	
581.400	27.088	
581.500	32.875	
581.600	25.694	
581.700	27.699	
581.800	16.212	
581.900	30.682	
582.000	19.183	
582.100	29.569	
582.200	29.164	
582.300	21.771	
582.400	38.648	
582.500	27.562	
582.600	22.755	
582.700	6.975	
582.800	27.023	
582.900	25.629	
583.000	42.209	
583.100	14.301	
583.200	12.868	
583.300	40.590	
583.400	23.532	
583.500	22.410	
583.600	22.825	
583.700	24.279	
583.800	17.465	
583.900	16.676	
584.000	35.247	
584.100	21.632	
584.200	38.616	
584.300	31.421	
584.400	18.664	
584.500	15.594	
584.600	36.616	
584.700	14.450	
584.800	21.684	
584.900	18.901	
585.000	32.713	
585.100	29.617	
585.200	19.896	
585.300	7.805	
585.400	28.973	
585.500	27.356	
585.600	18.716	
585.700	26.742	
585.800	28.928	
585.900	4.095	
586.000	29.051	
586.100	12.521	
586.200	35.321	
586.300	14.837	
586.400	25.467	
586.500	32.621	
586.600	24.931	
586.700	25.705	
586.800	15.288	
586.900	32.164	
587.000	11.547	
587.100	28.151	
587.200	19.051	
587.300	21.190	
587.400	13.957	
587.500	12.053	
587.600	21.488	
587.700	27.554	
587.800	10.452	
587.900	17.114	
588.000	23.774	
588.100	31.118	
588.200	19.591	
588.300	24.346	
588.400	12.692	
588.500	35.932	
588.600	23.211	
588.700	19.626	
588.800	9.798	
588.900	15.679	
589.000	17.147	
589.100	13.333	
589.200	23.091	
589.300	18.311	
589.400	16.973	
589.500	29.358	
589.600	11.802	
589.700	30.841	
589.800	11.793	
589.900	28.494	
590.000	27.464	
590.100	7.213	
590.200	19.759	
590.300	27.451	
590.400	10.625	
590.500	23.309	
590.600	33.598	
590.700	12.512	
590.800	21.707	
590.900	8.781	
591.000	22.268	
591.100	10.531	
591.200	0.921	
591.300	16.561	
591.400	17.161	
591.500	31.878	
591.600	27.319	
591.700	14.509	
591.800	32.885	
591.900	23.894	
592.000	32.480	
592.100	21.137	
592.200	8.733	
592.300	27.975	
592.400	25.369	
592.500	15.968	
592.600	26.989	
592.700	24.813	
592.800	32.561	
592.900	11.230	
593.000	28.619	
593.100	25.633	
593.200	27.726	
593.300	23.409	
593.400	12.838	
593.500	23.911	
593.600	-0.157	
593.700	32.941	
593.800	22.575	
593.900	17.655	
594.000	24.413	
594.100	21.984	
594.200	25.709	
594.300	29.919	
594.400	10.399	
594.500	22.016	
594.600	23.451	
594.700	27.960	
594.800	21.762	
594.900	17.254	
595.000	9.468	
595.100	30.266	
595.200	12.150	
595.300	17.880	
595.400	35.638	
595.500	29.684	
595.600	28.392	
595.700	9.845	
595.800	17.551	
595.900	26.182	
596.000	16.790	
596.100	31.641	
596.200	23.424	
596.300	14.017	
596.400	24.800	
596.500	9.224	
596.600	12.476	
596.700	21.490	
596.800	13.992	
596.900	33.551	
597.000	24.535	
597.100	17.735	
597.200	26.827	
597.300	26.111	
597.400	28.579	
597.500	45.439	
597.600	24.764	
597.700	23.897	
597.800	18.901	
597.900	17.213	
598.000	19.507	
598.100	18.269	
598.200	19.355	
598.300	18.886	
598.400	19.962	
598.500	21.218	
598.600	6.672	
598.700	15.981	
598.800	30.294	
598.900	15.507	
599.000	27.772	
599.100	10.824	
599.200	32.958	
599.300	31.243	
599.400	21.468	
599.500	26.211	
599.600	26.155	
599.700	41.102	
599.800	16.135	
599.900	19.999	
600.000	25.670	
600.100	31.418	
600.200	32.363	
600.300	17.278	
600.400	11.653	
600.500	14.124	
600.600	35.202	
600.700	21.493	
600.800	23.504	
600.900	23.270	
601.000	23.353	
601.100	11.675	
601.200	33.324	
601.300	7.647	
601.400	32.211	
601.500	22.839	
601.600	38.685	
601.700	17.092	
601.800	17.320	
601.900	30.909	
602.000	13.581	
602.100	30.487	
602.200	41.840	
602.300	28.689	
602.400	24.480	
602.500	26.193	
602.600	12.734	
602.700	31.957	
602.800	27.211	
602.900	17.444	
603.000	25.160	
603.100	28.575	
603.200	34.314	
603.300	35.574	
603.400	25.103	
603.500	19.347	
603.600	18.054	
603.700	22.711	
603.800	27.817	
603.900	31.587	
604.000	27.731	
604.100	11.776	
604.200	9.243	
604.300	41.831	
604.400	17.657	
604.500	19.658	
604.600	37.553	
604.700	28.368	
604.800	21.050	
604.900	13.482	
605.000	32.743	
605.100	15.484	
605.200	31.003	
605.300	17.307	
605.400	42.982	
605.500	30.283	
605.600	16.890	
605.700	26.440	
605.800	18.706	
605.900	33.197	
606.000	24.767	
606.100	18.889	
606.200	30.422	
606.300	18.044	
606.400	24.133	
606.500	30.915	
606.600	31.632	
606.700	32.519	
606.800	24.864	
606.900	24.108	
607.000	30.353	
607.100	40.808	
607.200	9.175	
607.300	27.943	
607.400	11.723	
607.500	13.388	
607.600	15.263	
607.700	32.992	
607.800	22.821	
607.900	38.391	
608.000	12.513	
608.100	30.258	
608.200	30.035	
608.300	8.877	
608.400	26.912	
608.500	9.348	
608.600	26.631	
608.700	12.062	
608.800	34.816	
608.900	26.742	
609.000	15.599	
609.100	29.006	
609.200	33.894	
609.300	2.436	
609.400	6.421	
609.500	21.233	
609.600	4.743	
609.700	43.029	
609.800	34.523	
609.900	27.460	
610.000	21.877	
610.100	9.965	
610.200	37.488	
610.300	18.730	
610.400	10.565	
610.500	28.667	
610.600	20.701	
610.700	15.295	
610.800	23.544	
610.900	22.757	
611.000	35.551	
611.100	13.573	
611.200	5.485	
611.300	42.654	
611.400	20.970	
611.500	40.186	
611.600	16.793	
611.700	16.391	
611.800	28.299	
611.900	23.492	
612.000	17.799	
612.100	33.297	
612.200	38.586	
612.300	24.108	
612.400	29.443	
612.500	27.164	
612.600	21.969	
612.700	31.357	
612.800	37.904	
612.900	19.716	
613.000	26.917	
613.100	19.703	
613.200	7.445	
613.300	23.457	
613.400	36.144	
613.500	25.875	
613.600	42.135	
613.700	13.809	
613.800	41.450	
613.900	23.299	
614.000	41.221	
614.100	34.285	
614.200	15.993	
614.300	29.175	
614.400	35.217	
614.500	17.530	
614.600	32.461	
614.700	22.354	
614.800	34.455	
614.900	16.185	
615.000	24.907	
615.100	19.954	
615.200	30.873	
615.300	24.009	
615.400	36.449	
615.500	33.476	
615.600	30.319	
615.700	36.456	
615.800	34.873	
615.900	30.380	
616.000	24.110	
616.100	18.744	
616.200	38.971	
616.300	9.771	
616.400	29.214	
616.500	33.716	
616.600	23.045	
616.700	33.467	
616.800	37.035	
616.900	28.238	
617.000	34.967	
617.100	19.591	
617.200	26.748	
617.300	19.102	
617.400	29.124	
617.500	30.302	
617.600	24.030	
617.700	19.883	
617.800	34.364	
617.900	15.966	
618.000	34.821	
618.100	26.972	
618.200	27.729	
618.300	37.326	
618.400	33.291	
618.500	31.134	
618.600	36.624	
618.700	22.013	
618.800	18.928	
618.900	27.144	
619.000	12.222	
619.100	39.331	
619.200	46.301	
619.300	9.605	
619.400	30.964	
619.500	29.185	
619.600	18.694	
619.700	17.744	
619.800	46.510	
619.900	21.374	
620.000	39.380	
620.100	39.182	
620.200	34.817	
620.300	24.771	
620.400	26.113	
620.500	33.896	
620.600	23.859	
620.700	18.592	
620.800	35.820	
620.900	18.555	
621.000	30.000	
621.100	24.366	
621.200	17.540	
621.300	12.306	
621.400	40.622	
621.500	42.331	
621.600	34.664	
621.700	30.266	
621.800	25.062	
621.900	15.548	
622.000	14.651	
622.100	27.254	
622.200	40.710	
622.300	29.503	
622.400	36.902	
622.500	18.484	
622.600	31.335	
622.700	34.599	
622.800	3.818	
622.900	26.152	
623.000	16.820	
623.100	7.366	
623.200	16.462	
623.300	38.787	
623.400	25.298	
623.500	37.200	
623.600	13.503	
623.700	23.968	
623.800	35.099	
623.900	42.476	
624.000	37.762	
624.100	9.376	
624.200	20.728	
624.300	24.976	
624.400	25.139	
624.500	29.672	
624.600	14.828	
624.700	17.313	
624.800	19.538	
624.900	18.392	
625.000	36.529	
625.100	29.249	
625.200	21.483	
625.300	24.767	
625.400	21.231	
625.500	23.728	
625.600	27.680	
625.700	22.791	
625.800	11.077	
625.900	20.277	
626.000	17.778	
626.100	16.453	
626.200	23.267	
626.300	9.664	
626.400	32.738	
626.500	27.046	
626.600	22.284	
626.700	26.697	
626.800	13.077	
626.900	25.896	
627.000	32.277	
627.100	36.963	
627.200	25.489	
627.300	9.755	
627.400	27.417	
627.500	28.068	
627.600	25.992	
627.700	30.599	
627.800	29.260	
627.900	25.794	
628.000	32.932	
628.100	28.435	
628.200	36.476	
628.300	14.429	
628.400	32.953	
628.500	17.678	
628.600	-5.060	
628.700	25.656	
628.800	18.364	
628.900	41.055	
629.000	38.311	
629.100	33.902	
629.200	27.689	
629.300	24.196	
629.400	35.170	
629.500	41.767	
629.600	30.611	
629.700	10.911	
629.800	32.037	
629.900	37.163	
630.000	31.575	
630.100	26.249	
630.200	33.490	
630.300	20.502	
630.400	33.586	
630.500	7.262	
630.600	41.650	
630.700	34.954	
630.800	28.345	
630.900	16.712	
631.000	30.920	
631.100	35.288	
631.200	11.219	
631.300	18.585	
631.400	39.669	
631.500	19.685	
631.600	41.603	
631.700	12.214	
631.800	4.326	
631.900	28.635	
632.000	38.846	
632.100	32.281	
632.200	23.859	
632.300	37.229	
632.400	32.300	
632.500	33.530	
632.600	27.110	
632.700	38.064	
632.800	30.431	
632.900	35.743	
633.000	26.833	
633.100	22.103	
633.200	17.747	
633.300	28.203	
633.400	32.470	
633.500	29.180	
633.600	22.843	
633.700	40.243	
633.800	42.581	
633.900	2.869	
634.000	39.646	
634.100	25.420	
634.200	49.035	
634.300	34.599	
634.400	35.188	
634.500	23.655	
634.600	16.085	
634.700	57.226	
634.800	25.777	
634.900	17.983	
635.000	32.231	
635.100	24.299	
635.200	20.940	
635.300	25.965	
635.400	34.596	
635.500	18.006	
635.600	22.993	
635.700	29.047	
635.800	33.192	
635.900	27.890	
636.000	35.970	
636.100	40.577	
636.200	14.720	
636.300	22.516	
636.400	42.744	
636.500	37.447	
636.600	27.672	
636.700	18.295	
636.800	18.346	
636.900	13.626	
637.000	45.735	
637.100	31.783	
637.200	22.693	
637.300	12.415	
637.400	43.713	
637.500	36.563	
637.600	13.654	
637.700	30.277	
637.800	35.939	
637.900	38.204	
638.000	3.027	
638.100	32.239	
638.200	23.947	
638.300	30.642	
638.400	24.469	
638.500	32.380	
638.600	33.354	
638.700	38.235	
638.800	35.698	
638.900	36.516	
639.000	27.765	
639.100	38.079	
639.200	21.230	
639.300	33.607	
639.400	30.467	
639.500	23.819	
639.600	33.732	
639.700	35.351	
639.800	33.199	
639.900	12.219	
640.000	35.047	
640.100	34.156	
640.200	34.136	
640.300	34.700	
640.400	38.479	
640.500	32.863	
640.600	27.816	
640.700	29.409	
640.800	24.297	
640.900	38.245	
641.000	38.089	
641.100	28.401	
641.200	36.680	
641.300	26.062	
641.400	17.573	
641.500	38.279	
641.600	15.529	
641.700	20.892	
641.800	24.427	
641.900	53.176	
642.000	34.800	
642.100	27.127	
642.200	17.843	
642.300	32.811	
642.400	33.073	
642.500	28.150	
642.600	19.028	
642.700	30.485	
642.800	23.823	
642.900	27.260	
643.000	31.184	
643.100	29.699	
643.200	32.663	
643.300	15.114	
643.400	28.350	
643.500	31.488	
643.600	14.744	
643.700	41.448	
643.800	36.834	
643.900	26.137	
644.000	27.372	
644.100	31.712	
644.200	32.042	
644.300	9.816	
644.400	28.044	
644.500	33.631	
644.600	30.861	
644.700	20.306	
644.800	27.043	
644.900	32.780	
645.000	13.241	
645.100	22.629	
645.200	38.287	
645.300	32.564	
645.400	35.567	
645.500	25.090	
645.600	27.426	
645.700	11.089	
645.800	22.057	
645.900	35.445	
646.000	37.049	
646.100	24.483	
646.200	17.260	
646.300	19.904	
646.400	49.914	
646.500	20.457	
646.600	24.432	
646.700	26.995	
646.800	24.208	
646.900	18.778	
647.000	20.876	
647.100	37.280	
647.200	31.020	
647.300	30.781	
647.400	32.725	
647.500	28.692	
647.600	22.721	
647.700	24.187	
647.800	38.104	
647.900	25.501	
648.000	15.383	
648.100	32.561	
648.200	5.437	
648.300	24.793	
648.400	35.824	
648.500	33.715	
648.600	23.517	
648.700	24.389	
648.800	25.346	
648.900	22.246	
649.000	27.868	
649.100	23.599	
649.200	39.027	
649.300	32.709	
649.400	10.364	
649.500	22.329	
649.600	23.608	
649.700	20.526	
649.800	37.745	
649.900	3.007	
650.000	41.325	
650.100	39.795	
650.200	16.516	
650.300	25.362	
650.400	35.464	
650.500	32.096	
650.600	39.233	
650.700	38.442	
650.800	26.679	
650.900	23.053	
651.000	8.953	
651.100	26.737	
651.200	32.523	
651.300	25.811	
651.400	22.243	
651.500	14.473	
651.600	26.834	
651.700	13.148	
651.800	34.211	
651.900	33.629	
652.000	19.670	
652.100	13.441	
652.200	32.498	
652.300	17.716	
652.400	13.678	
652.500	31.135	
652.600	20.360	
652.700	33.158	
652.800	36.581	
652.900	26.497	
653.000	15.730	
653.100	19.991	
653.200	25.775	
653.300	36.807	
653.400	41.910	
653.500	0.264	
653.600	17.024	
653.700	12.902	
653.800	24.413	
653.900	16.941	
654.000	25.696	
654.100	14.603	
654.200	31.950	
654.300	21.118	
654.400	38.294	
654.500	39.675	
654.600	21.127	
654.700	19.163	
654.800	34.107	
654.900	21.009	
655.000	15.603	
655.100	39.491	
655.200	25.465	
655.300	13.312	
655.400	34.579	
655.500	26.084	
655.600	28.210	
655.700	32.150	
655.800	23.963	
655.900	21.295	
656.000	19.310	
656.100	31.048	
656.200	34.198	
656.300	11.748	
656.400	21.031	
656.500	13.784	
656.600	43.503	
656.700	22.017	
656.800	18.691	
656.900	18.061	
657.000	19.631	
657.100	33.395	
657.200	37.413	
657.300	19.392	
657.400	8.515	
657.500	18.027	
657.600	35.902	
657.700	21.869	
657.800	32.933	
657.900	14.431	
658.000	31.349	
658.100	15.621	
658.200	18.517	
658.300	35.661	
658.400	25.914	
658.500	31.221	
658.600	28.153	
658.700	10.827	
658.800	21.642	
658.900	29.962	
659.000	21.162	
659.100	27.174	
659.200	35.040	
659.300	30.266	
659.400	23.562	
659.500	16.688	
659.600	23.791	
659.700	28.485	
659.800	22.090	
659.900	37.786	
660.000	32.442	
660.100	24.035	
660.200	31.682	
660.300	33.468	
660.400	27.132	
660.500	29.929	
660.600	23.518	
660.700	26.610	
660.800	34.258	
660.900	26.359	
661.000	23.007	
661.100	26.890	
661.200	39.807	
661.300	39.564	
661.400	16.457	
661.500	5.904	
661.600	23.762	
661.700	39.089	
661.800	33.030	
661.900	17.454	
662.000	27.632	
662.100	3.634	
662.200	22.129	
662.300	24.882	
662.400	28.017	
662.500	25.755	
662.600	38.301	
662.700	11.962	
662.800	17.642	
662.900	21.411	
663.000	47.436	
663.100	32.748	
663.200	23.403	
663.300	27.696	
663.400	34.301	
663.500	12.648	
663.600	23.646	
663.700	23.436	
663.800	34.213	
663.900	24.846	
664.000	18.559	
664.100	36.945	
664.200	16.813	
664.300	33.740	
664.400	23.902	
664.500	10.389	
664.600	20.449	
664.700	17.342	
664.800	37.840	
664.900	33.012	
665.000	27.621	
665.100	11.065	
665.200	25.118	
665.300	9.740	
665.400	7.382	
665.500	30.764	
665.600	23.493	
665.700	25.198	
665.800	26.076	
665.900	13.087	
666.000	27.047	
666.100	20.032	
666.200	31.570	
666.300	26.531	
666.400	12.733	
666.500	17.546	
666.600	18.486	
666.700	43.947	
666.800	20.067	
666.900	23.935	
667.000	30.598	
667.100	2.321	
667.200	37.797	
667.300	9.948	
667.400	39.291	
667.500	32.335	
667.600	31.205	
667.700	14.397	
667.800	31.874	
667.900	-1.151	
668.000	33.116	
668.100	29.402	
668.200	31.076	
668.300	32.973	
668.400	24.309	
668.500	15.076	
668.600	28.032	
668.700	36.408	
668.800	29.885	
668.900	22.487	
669.000	27.028	
669.100	18.378	
669.200	26.998	
669.300	15.276	
669.400	29.745	
669.500	26.720	
669.600	23.747	
669.700	11.223	
669.800	19.536	
669.900	30.822	
670.000	23.925	
670.100	11.459	
670.200	22.285	
670.300	30.167	
670.400	3.031	
670.500	47.283	
670.600	20.061	
670.700	12.322	
670.800	25.658	
670.900	18.056	
671.000	14.524	
671.100	26.794	
671.200	28.417	
671.300	42.361	
671.400	13.436	
671.500	6.611	
671.600	24.914	
671.700	2.435	
671.800	14.987	
671.900	22.447	
672.000	9.171	
672.100	22.538	
672.200	19.899	
672.300	23.826	
672.400	16.605	
672.500	33.547	
672.600	24.021	
672.700	8.097	
672.800	12.556	
672.900	18.452	
673.000	17.440	
673.100	21.619	
673.200	26.079	
673.300	36.866	
673.400	11.739	
673.500	28.458	
673.600	15.082	
673.700	16.043	
673.800	19.425	
673.900	13.341	
674.000	24.752	
674.100	20.951	
674.200	28.778	
674.300	13.009	
674.400	23.702	
674.500	31.568	
674.600	23.663	
674.700	16.247	
674.800	8.505	
674.900	37.174	
675.000	32.929	
675.100	32.615	
675.200	21.854	
675.300	11.342	
675.400	9.114	
675.500	28.394	
675.600	22.130	
675.700	19.272	
675.800	19.670	
675.900	18.951	
676.000	21.950	
676.100	27.657	
676.200	18.743	
676.300	32.084	
676.400	14.307	
676.500	41.556	
676.600	12.133	
676.700	19.254	
676.800	34.165	
676.900	14.761	
677.000	30.067	
677.100	33.879	
677.200	27.660	
677.300	25.074	
677.400	19.691	
677.500	6.243	
677.600	31.230	
677.700	35.087	
677.800	13.293	
677.900	34.141	
678.000	28.768	
678.100	34.091	
678.200	9.338	
678.300	26.090	
678.400	-1.364	
678.500	24.386	
678.600	37.974	
678.700	39.764	
678.800	8.049	
678.900	17.149	
679.000	23.722	
679.100	26.371	
679.200	10.107	
679.300	24.473	
679.400	30.144	
679.500	37.888	
679.600	28.354	
679.700	22.193	
679.800	27.051	
679.900	25.661	
680.000	17.345	
680.100	22.484	
680.200	24.675	
680.300	6.611	
680.400	16.484	
680.500	32.313	
680.600	3.544	
680.700	32.132	
680.800	14.888	
680.900	24.373	
681.000	16.411	
681.100	27.141	
681.200	20.474	
681.300	25.892	
681.400	20.437	
681.500	23.094	
681.600	26.319	
681.700	18.295	
681.800	22.843	
681.900	31.172	
682.000	23.670	
682.100	24.128	
682.200	35.166	
682.300	13.476	
682.400	20.669	
682.500	11.426	
682.600	26.623	
682.700	19.691	
682.800	23.341	
682.900	34.623	
683.000	44.016	
683.100	16.893	
683.200	22.801	
683.300	27.858	
683.400	18.528	
683.500	34.964	
683.600	6.811	
683.700	34.900	
683.800	12.497	
683.900	12.732	
684.000	46.647	
684.100	26.602	
684.200	34.646	
684.300	19.877	
684.400	16.528	
684.500	15.917	
684.600	17.683	
684.700	22.007	
684.800	28.859	
684.900	13.319	
685.000	23.353	
685.100	15.958	
685.200	36.345	
685.300	17.936	
685.400	22.024	
685.500	24.102	
685.600	19.782	
685.700	31.429	
685.800	21.840	
685.900	13.309	
686.000	21.540	
686.100	17.340	
686.200	38.345	
686.300	34.354	
686.400	9.647	
686.500	19.178	
686.600	37.014	
686.700	19.477	
686.800	11.145	
686.900	33.418	
687.000	21.781	
687.100	12.909	
687.200	8.591	
687.300	17.734	
687.400	20.796	
687.500	25.108	
687.600	25.261	
687.700	35.482	
687.800	18.082	
687.900	15.500	
688.000	16.452	
688.100	21.391	
688.200	4.535	
688.300	18.598	
688.400	32.270	
688.500	23.039	
688.600	20.376	
688.700	23.878	
688.800	28.707	
688.900	22.339	
689.000	26.918	
689.100	24.810	
689.200	31.237	
689.300	31.941	
689.400	20.990	
689.500	17.047	
689.600	20.847	
689.700	15.634	
689.800	32.565	
689.900	21.621	
690.000	18.996	
690.100	18.677	
690.200	27.114	
690.300	15.500	
690.400	19.841	
690.500	33.546	
690.600	11.473	
690.700	26.703	
690.800	22.970	
690.900	18.062	
691.000	11.382	
691.100	22.476	
691.200	4.586	
691.300	24.181	
691.400	20.933	
691.500	13.995	
691.600	31.162	
691.700	19.329	
691.800	28.299	
691.900	16.191	
692.000	24.083	
692.100	13.634	
692.200	46.996	
692.300	18.768	
692.400	36.252	
692.500	29.452	
692.600	28.807	
692.700	22.183	
692.800	25.469	
692.900	47.279	
693.000	24.294	
693.100	25.439	
693.200	37.804	
693.300	11.673	
693.400	36.262	
693.500	44.579	
693.600	8.741	
693.700	18.772	
693.800	37.887	
693.900	19.752	
694.000	28.622	
694.100	27.526	
694.200	24.746	
694.300	11.281	
694.400	14.838	
694.500	10.929	
694.600	35.677	
694.700	24.922	
694.800	18.739	
694.900	20.443	
695.000	17.427	
695.100	17.977	
695.200	23.276	
695.300	36.320	
695.400	19.335	
695.500	5.940	
695.600	5.428	
695.700	33.062	
695.800	45.509	
695.900	19.646	
696.000	21.271	
696.100	23.607	
696.200	21.823	
696.300	12.848	
696.400	12.333	
696.500	22.908	
696.600	24.532	
696.700	11.438	
696.800	3.402	
696.900	36.242	
697.000	38.360	
697.100	14.668	
697.200	8.068	
697.300	15.346	
697.400	35.528	
697.500	32.018	
697.600	19.003	
697.700	10.959	
697.800	34.971	
697.900	15.544	
698.000	-1.561	
698.100	29.746	
698.200	28.887	
698.300	15.984	
698.400	28.243	
698.500	42.769	
698.600	13.107	
698.700	9.290	
698.800	12.694	
698.900	17.290	
699.000	4.645	
699.100	31.999	
699.200	28.223	
699.300	29.953	
699.400	35.941	
699.500	23.691	
699.600	30.869	
699.700	25.247	
699.800	27.005	
699.900	25.555	
700.000	28.309	
700.100	13.124	
700.200	24.348	
700.300	15.922	
700.400	41.667	
700.500	18.216	
700.600	32.645	
700.700	27.168	
700.800	30.695	
700.900	7.406	
701.000	43.970	
701.100	20.592	
701.200	26.776	
701.300	21.465	
701.400	16.801	
701.500	23.952	
701.600	29.825	
701.700	16.142	
701.800	21.927	
701.900	12.887	
702.000	30.080	
702.100	11.280	
702.200	22.399	
702.300	27.830	
702.400	19.449	
702.500	19.271	
702.600	25.922	
702.700	29.384	
702.800	21.078	
702.900	18.928	
703.000	25.666	
703.100	26.805	
703.200	32.008	
703.300	25.982	
703.400	2.409	
703.500	21.288	
703.600	11.529	
703.700	31.769	
703.800	31.775	
703.900	12.623	
704.000	32.950	
704.100	29.576	
704.200	0.914	
704.300	9.898	
704.400	16.098	
704.500	21.549	
704.600	18.846	
704.700	27.899	
704.800	31.252	
704.900	1.955	
705.000	40.999	
705.100	29.725	
705.200	29.177	
705.300	17.483	
705.400	14.037	
705.500	24.699	
705.600	19.026	
705.700	16.836	
705.800	33.836	
705.900	16.527	
706.000	40.620	
706.100	18.900	
706.200	10.342	
706.300	17.655	
706.400	25.334	
706.500	28.126	
706.600	20.122	
706.700	12.554	
706.800	14.719	
706.900	14.068	
707.000	28.479	
707.100	29.324	
707.200	15.936	
707.300	23.503	
707.400	39.681	
707.500	25.956	
707.600	28.892	
707.700	40.140	
707.800	25.681	
707.900	6.816	
708.000	14.300	
708.100	6.915	
708.200	26.849	
708.300	14.970	
708.400	16.568	
708.500	12.244	
708.600	33.519	
708.700	22.254	
708.800	34.217	
708.900	7.574	
709.000	24.169	
709.100	36.284	
709.200	21.223	
709.300	24.965	
709.400	25.523	
709.500	12.312	
709.600	12.128	
709.700	26.782	
709.800	45.326	
709.900	8.015	
710.000	32.843	
710.100	29.634	
710.200	-4.031	
710.300	28.074	
710.400	32.950	
710.500	28.985	
710.600	27.198	
710.700	18.134	
710.800	16.355	
710.900	16.291	
711.000	22.623	
711.100	9.397	
711.200	0.574	
711.300	26.897	
711.400	13.544	
711.500	31.435	
711.600	18.666	
711.700	27.181	
711.800	7.806	
711.900	19.041	
712.000	6.175	
712.100	18.770	
712.200	25.078	
712.300	38.775	
712.400	25.198	
712.500	17.910	
712.600	19.329	
712.700	35.150	
712.800	10.522	
712.900	16.681	
713.000	30.537	
713.100	35.677	
713.200	15.909	
713.300	24.637	
713.400	16.278	
713.500	24.452	
713.600	21.781	
713.700	4.958	
713.800	12.599	
713.900	26.946	
714.000	9.221	
714.100	21.957	
714.200	29.488	
714.300	1.345	
714.400	27.934	
714.500	22.836	
714.600	26.710	
714.700	8.653	
714.800	34.024	
714.900	22.597	
715.000	12.053	
715.100	13.421	
715.200	9.595	
715.300	18.581	
715.400	19.611	
715.500	43.836	
715.600	7.739	
715.700	7.817	
715.800	13.505	
715.900	15.801	
716.000	7.986	
716.100	18.901	
716.200	27.237	
716.300	3.067	
716.400	20.337	
716.500	19.761	
716.600	19.075	
716.700	17.499	
716.800	23.596	
716.900	29.092	
717.000	19.506	
717.100	17.302	
717.200	20.835	
717.300	13.785	
717.400	22.871	
717.500	17.621	
717.600	18.877	
717.700	28.630	
717.800	12.987	
717.900	20.288	
718.000	10.987	
718.100	21.955	
718.200	4.695	
718.300	18.566	
718.400	29.372	
718.500	25.489	
718.600	35.597	
718.700	24.861	
718.800	29.830	
718.900	16.167	
719.000	20.734	
719.100	41.421	
719.200	24.636	
719.300	-0.603	
719.400	38.483	
719.500	0.981	
719.600	42.491	
719.700	33.175	
719.800	30.094	
719.900	24.730	
720.000	33.493	
720.100	14.667	
720.200	25.002	
720.300	31.090	
720.400	4.247	
720.500	26.771	
720.600	37.224	
720.700	33.729	
720.800	20.094	
720.900	29.962	
721.000	18.386	
721.100	20.621	
721.200	29.769	
721.300	19.334	
721.400	35.449	
721.500	25.020	
721.600	-0.686	
721.700	17.030	
721.800	20.259	
721.900	32.745	
722.000	25.606	
722.100	23.503	
722.200	26.134	
722.300	11.714	
722.400	28.570	
722.500	10.599	
722.600	30.120	
722.700	19.020	
722.800	26.634	
722.900	20.942	
723.000	13.898	
723.100	26.106	
723.200	31.407	
723.300	22.135	
723.400	11.246	
723.500	25.687	
723.600	11.059	
723.700	35.302	
723.800	23.089	
723.900	12.495	
724.000	15.456	
724.100	27.268	
724.200	33.145	
724.300	34.317	
724.400	20.091	
724.500	17.658	
724.600	22.182	
724.700	13.819	
724.800	35.897	
724.900	-0.571	
725.000	9.026	
725.100	35.150	
725.200	19.773	
725.300	32.058	
725.400	36.058	
725.500	25.147	
725.600	23.013	
725.700	25.102	
725.800	-0.100	
725.900	25.243	
726.000	23.033	
726.100	35.639	
726.200	31.319	
726.300	34.612	
726.400	22.950	
726.500	17.368	
726.600	12.437	
726.700	20.073	
726.800	7.550	
726.900	14.424	
727.000	21.592	
727.100	33.095	
727.200	13.253	
727.300	25.168	
727.400	20.433	
727.500	28.660	
727.600	24.196	
727.700	11.201	
727.800	31.732	
727.900	22.753	
728.000	15.445	
728.100	25.575	
728.200	18.863	
728.300	28.248	
728.400	27.518	
728.500	10.553	
728.600	18.069	
728.700	27.619	
728.800	22.174	
728.900	26.991	
729.000	20.234	
729.100	19.989	
729.200	41.166	
729.300	14.667	
729.400	26.032	
729.500	20.594	
729.600	16.228	
729.700	32.449	
729.800	28.037	
729.900	29.034	
730.000	23.474	
730.100	20.565	
730.200	29.219	
730.300	40.456	
730.400	4.321	
730.500	34.153	
730.600	25.544	
730.700	14.892	
730.800	28.413	
730.900	30.483	
731.000	23.729	
731.100	31.985	
731.200	9.992	
731.300	4.245	
731.400	23.267	
731.500	5.917	
731.600	16.477	
731.700	28.260	
731.800	26.648	
731.900	10.123	
732.000	23.336	
732.100	11.520	
732.200	24.335	
732.300	44.618	
732.400	21.670	
732.500	17.968	
732.600	5.119	
732.700	18.219	
732.800	29.489	
732.900	6.051	
733.000	26.012	
733.100	24.269	
733.200	15.143	
733.300	26.091	
733.400	24.107	
733.500	28.679	
733.600	25.164	
733.700	23.230	
733.800	18.808	
733.900	21.709	
734.000	11.885	
734.100	24.174	
734.200	20.888	
734.300	19.489	
734.400	25.726	
734.500	16.929	
734.600	26.278	
734.700	24.997	
734.800	23.850	
734.900	23.053	
735.000	12.220	
735.100	26.085	
735.200	13.386	
735.300	19.777	
735.400	31.972	
735.500	35.336	
735.600	13.459	
735.700	12.962	
735.800	24.393	
735.900	29.544	
736.000	20.915	
736.100	22.985	
736.200	22.844	
736.300	22.113	
736.400	31.016	
736.500	14.808	
736.600	24.408	
736.700	40.799	
736.800	33.695	
736.900	20.207	
737.000	31.102	
737.100	14.994	
737.200	18.327	
737.300	22.506	
737.400	31.143	
737.500	22.964	
737.600	23.650	
737.700	14.024	
737.800	25.427	
737.900	-2.882	
738.000	35.859	
738.100	16.074	
738.200	12.019	
738.300	36.065	
738.400	20.360	
738.500	23.975	
738.600	19.887	
738.700	20.164	
738.800	36.565	
738.900	22.222	
739.000	18.475	
739.100	19.103	
739.200	3.243	
739.300	16.646	
739.400	6.739	
739.500	8.267	
739.600	19.004	
739.700	10.525	
739.800	28.829	
739.900	18.730	
740.000	6.453	
740.100	26.751	
740.200	24.098	
740.300	14.416	
740.400	20.394	
740.500	24.238	
740.600	15.243	
740.700	14.699	
740.800	30.625	
740.900	17.986	
741.000	23.922	
741.100	11.811	
741.200	24.745	
741.300	30.384	
741.400	23.280	
741.500	30.215	
741.600	28.807	
741.700	5.497	
741.800	8.718	
741.900	21.600	
742.000	18.138	
742.100	21.060	
742.200	20.020	
742.300	13.467	
742.400	18.001	
742.500	22.926	
742.600	27.692	
742.700	23.273	
742.800	29.337	
742.900	22.493	
743.000	23.392	
743.100	22.661	
743.200	20.257	
743.300	24.114	
743.400	34.782	
743.500	26.776	
743.600	14.472	
743.700	24.046	
743.800	24.902	
743.900	43.445	
744.000	13.907	
744.100	7.326	
744.200	23.544	
744.300	23.994	
744.400	27.047	
744.500	29.478	
744.600	18.379	
744.700	26.299	
744.800	20.311	
744.900	15.298	
745.000	35.718	
745.100	32.207	
745.200	15.127	
745.300	20.212	
745.400	-2.665	
745.500	29.454	
745.600	25.585	
745.700	20.335	
745.800	15.029	
745.900	13.149	
746.000	23.182	
746.100	10.503	
746.200	22.372	
746.300	24.059	
746.400	27.526	
746.500	21.088	
746.600	14.216	
746.700	17.385	
746.800	12.073	
746.900	20.259	
747.000	19.849	
747.100	6.899	
747.200	22.763	
747.300	27.654	
747.400	17.005	
747.500	17.077	
747.600	24.964	
747.700	22.290	
747.800	12.810	
747.900	10.112	
748.000	15.050	
748.100	23.068	
748.200	26.119	
748.300	4.853	
748.400	22.300	
748.500	41.108	
748.600	3.803	
748.700	21.904	
748.800	22.001	
748.900	19.470	
749.000	26.189	
749.100	24.329	
749.200	8.037	
749.300	34.237	
749.400	-4.877	
749.500	39.643	
749.600	17.893	
749.700	25.914	
749.800	19.555	
749.900	21.458	
750.000	29.199	
750.100	18.333	
750.200	11.949	
750.300	14.525	
750.400	11.016	
750.500	24.524	
750.600	13.297	
750.700	10.428	
750.800	27.049	
750.900	37.863	
751.000	21.340	
751.100	15.390	
751.200	10.955	
751.300	31.925	
751.400	23.125	
751.500	21.645	
751.600	17.302	
751.700	14.799	
751.800	12.458	
751.900	17.011	
752.000	22.608	
752.100	4.323	
752.200	30.955	
752.300	25.830	
752.400	28.313	
752.500	22.447	
752.600	14.023	
752.700	1.860	
752.800	43.349	
752.900	9.845	
753.000	21.721	
753.100	32.302	
753.200	9.886	
753.300	7.405	
753.400	24.882	
753.500	13.389	
753.600	12.730	
753.700	9.541	
753.800	26.680	
753.900	26.796	
754.000	15.337	
754.100	21.056	
754.200	12.255	
754.300	15.898	
754.400	26.298	
754.500	4.401	
754.600	12.292	
754.700	30.836	
754.800	28.033	
754.900	27.524	
755.000	26.224	
755.100	29.507	
755.200	9.743	
755.300	26.756	
755.400	44.797	
755.500	15.635	
755.600	20.484	
755.700	11.403	
755.800	13.516	
755.900	9.040	
756.000	14.993	
756.100	33.063	
756.200	24.857	
756.300	9.749	
756.400	23.595	
756.500	17.143	
756.600	20.409	
756.700	17.130	
756.800	30.676	
756.900	38.128	
757.000	26.178	
757.100	9.835	
757.200	19.974	
757.300	31.936	
757.400	30.517	
757.500	-1.113	
757.600	25.829	
757.700	14.692	
757.800	24.579	
757.900	19.440	
758.000	22.559	
758.100	20.786	
758.200	31.880	
758.300	22.007	
758.400	29.473	
758.500	17.393	
758.600	29.740	
758.700	15.792	
758.800	12.155	
758.900	15.414	
759.000	23.560	
759.100	18.839	
759.200	25.395	
759.300	22.905	
759.400	26.464	
759.500	18.084	
759.600	8.763	
759.700	19.059	
759.800	13.649	
759.900	9.091	
760.000	26.032	
760.100	26.214	
760.200	15.128	
760.300	37.081	
760.400	21.994	
760.500	27.090	
760.600	21.072	
760.700	21.971	
760.800	17.566	
760.900	24.576	
761.000	6.278	
761.100	30.389	
761.200	34.978	
761.300	15.252	
761.400	34.292	
761.500	21.180	
761.600	16.029	
761.700	14.527	
761.800	32.830	
761.900	27.584	
762.000	29.333	
762.100	25.420	
762.200	16.550	
762.300	11.790	
762.400	9.730	
762.500	16.247	
762.600	28.476	
762.700	25.066	
762.800	16.948	
762.900	13.739	
763.000	39.763	
763.100	14.528	
763.200	25.845	
763.300	12.568	
763.400	33.509	
763.500	14.859	
763.600	13.407	
763.700	13.193	
763.800	22.934	
763.900	14.074	
764.000	6.523	
764.100	17.539	
764.200	39.254	
764.300	16.736	
764.400	21.461	
764.500	26.210	
764.600	28.915	
764.700	26.774	
764.800	15.615	
764.900	18.236	
765.000	7.316	
765.100	39.359	
765.200	-2.096	
765.300	32.594	
765.400	22.485	
765.500	4.875	
765.600	14.050	
765.700	31.572	
765.800	19.569	
765.900	20.098	
766.000	1.228	
766.100	30.392	
766.200	30.080	
766.300	17.822	
766.400	29.068	
766.500	29.365	
766.600	33.860	
766.700	25.648	
766.800	10.378	
766.900	22.502	
767.000	20.476	
767.100	17.730	
767.200	23.641	
767.300	18.989	
767.400	42.378	
767.500	26.661	
767.600	2.600	
767.700	8.250	
767.800	37.621	
767.900	27.147	
768.000	28.759	
768.100	33.255	
768.200	9.327	
768.300	13.226	
768.400	28.377	
768.500	27.378	
768.600	12.369	
768.700	18.981	
768.800	28.470	
768.900	9.574	
769.000	38.504	
769.100	28.296	
769.200	22.822	
769.300	40.451	
769.400	4.489	
769.500	17.615	
769.600	26.958	
769.700	10.937	
769.800	31.812	
769.900	32.280	
770.000	35.447	
770.100	37.196	
770.200	4.861	
770.300	20.235	
770.400	34.112	
770.500	13.969	
770.600	18.153	
770.700	10.332	
770.800	34.486	
770.900	18.732	
771.000	26.335	
771.100	38.501	
771.200	25.721	
771.300	25.718	
771.400	12.004	
771.500	8.869	
771.600	19.403	
771.700	26.686	
771.800	21.319	
771.900	25.220	
772.000	15.206	
772.100	27.067	
772.200	30.300	
772.300	4.872	
772.400	12.325	
772.500	33.219	
772.600	5.345	
772.700	36.013	
772.800	20.318	
772.900	14.711	
773.000	12.684	
773.100	23.419	
773.200	36.317	
773.300	24.884	
773.400	36.840	
773.500	12.465	
773.600	22.502	
773.700	27.543	
773.800	13.132	
773.900	30.069	
774.000	32.408	
774.100	16.882	
774.200	5.134	
774.300	35.025	
774.400	31.015	
774.500	27.519	
774.600	27.545	
774.700	20.112	
774.800	-0.514	
774.900	15.161	
775.000	28.464	
775.100	22.582	
775.200	21.231	
775.300	7.383	
775.400	26.388	
775.500	17.339	
775.600	25.760	
775.700	24.489	
775.800	19.143	
775.900	7.884	
776.000	23.550	
776.100	17.864	
776.200	13.468	
776.300	18.174	
776.400	27.436	
776.500	20.926	
776.600	21.799	
776.700	31.268	
776.800	12.204	
776.900	-4.899	
777.000	22.724	
777.100	15.652	
777.200	25.477	
777.300	26.481	
777.400	27.292	
777.500	13.721	
777.600	12.552	
777.700	36.598	
777.800	36.291	
777.900	20.750	
778.000	31.626	
778.100	12.991	
778.200	22.807	
778.300	30.245	
778.400	10.164	
778.500	21.216	
778.600	25.718	
778.700	31.443	
778.800	21.648	
778.900	6.294	
779.000	8.922	
779.100	36.068	
779.200	27.906	
779.300	16.958	
779.400	18.894	
779.500	12.437	
779.600	15.864	
779.700	32.315	
779.800	38.223	
779.900	17.904	
780.000	24.301	
780.100	30.999	
780.200	17.445	
780.300	24.821	
780.400	29.032	
780.500	0.935	
780.600	38.526	
780.700	25.274	
780.800	6.132	
780.900	15.930	
781.000	17.866	
781.100	23.425	
781.200	16.799	
781.300	23.334	
781.400	18.497	
781.500	16.483	
781.600	6.536	
781.700	34.534	
781.800	25.284	
781.900	15.883	
782.000	7.660	
782.100	32.727	
782.200	28.571	
782.300	26.923	
782.400	33.239	
782.500	22.977	
782.600	18.147	
782.700	23.054	
782.800	18.375	
782.900	12.804	
783.000	11.740	
783.100	21.096	
783.200	19.444	
783.300	16.145	
783.400	7.805	
783.500	21.992	
783.600	28.328	
783.700	22.264	
783.800	37.390	
783.900	4.887	
784.000	8.755	
784.100	21.271	
784.200	21.979	
784.300	26.127	
784.400	24.295	
784.500	20.892	
784.600	26.195	
784.700	24.736	
784.800	24.195	
784.900	22.223	
785.000	20.001	
785.100	19.928	
785.200	22.689	
785.300	22.938	
785.400	12.859	
785.500	34.896	
785.600	32.731	
785.700	21.951	
785.800	33.346	
785.900	15.590	
786.000	14.090	
786.100	27.496	
786.200	22.479	
786.300	13.331	
786.400	18.533	
786.500	30.943	
786.600	20.777	
786.700	17.110	
786.800	17.299	
786.900	14.210	
787.000	15.858	
787.100	3.143	
787.200	29.111	
787.300	40.486	
787.400	40.047	
787.500	37.804	
787.600	15.453	
787.700	22.261	
787.800	10.349	
787.900	32.139	
788.000	29.753	
788.100	22.307	
788.200	18.851	
788.300	27.640	
788.400	33.910	
788.500	32.650	
788.600	1.818	
788.700	26.873	
788.800	16.148	
788.900	38.274	
789.000	8.740	
789.100	28.834	
789.200	17.297	
789.300	44.076	
789.400	31.221	
789.500	2.977	
789.600	21.950	
789.700	-6.125	
789.800	19.891	
789.900	12.811	
790.000	28.161	
790.100	22.298	
790.200	13.372	
790.300	-1.846	
790.400	33.904	
790.500	15.480	
790.600	35.252	
790.700	2.586	
790.800	26.705	
790.900	18.045	
791.000	17.755	
791.100	23.414	
791.200	17.320	
791.300	24.514	
791.400	31.534	
791.500	15.996	
791.600	26.510	
791.700	32.511	
791.800	23.278	
791.900	20.692	
792.000	7.679	
792.100	19.953	
792.200	25.982	
792.300	10.117	
792.400	21.873	
792.500	34.589	
792.600	32.015	
792.700	19.170	
792.800	23.269	
792.900	37.524	
793.000	15.798	
793.100	23.358	
793.200	25.022	
793.300	24.468	
793.400	36.689	
793.500	28.016	
793.600	10.453	
793.700	28.095	
793.800	34.660	
793.900	14.706	
794.000	30.987	
794.100	24.566	
794.200	26.229	
794.300	-5.063	
794.400	31.680	
794.500	32.878	
794.600	28.156	
794.700	17.212	
794.800	16.041	
794.900	26.381	
795.000	14.934	
795.100	21.541	
795.200	21.153	
795.300	14.842	
795.400	39.207	
795.500	24.215	
795.600	21.331	
795.700	31.763	
795.800	15.906	
795.900	23.607	
796.000	35.318	
796.100	34.417	
796.200	28.622	
796.300	9.588	
796.400	24.780	
796.500	23.646	
796.600	33.243	
796.700	31.420	
796.800	31.668	
796.900	27.806	
797.000	15.741	
797.100	34.805	
797.200	20.302	
797.300	-1.035	
797.400	25.405	
797.500	24.228	
797.600	19.525	
797.700	5.425	
797.800	43.929	
797.900	14.900	
798.000	35.104	
798.100	30.195	
798.200	27.656	
798.300	15.746	
798.400	8.711	
798.500	28.697	
798.600	18.989	
798.700	11.196	
798.800	36.368	
798.900	5.587	
799.000	20.287	
799.100	29.468	
799.200	27.667	
799.300	25.027	
799.400	26.285	
799.500	7.414	
799.600	37.371	
799.700	39.735	
799.800	24.209	
799.900	28.913	
800.000	32.796	
