time /s	I /nA	
0.100	16.221	
0.200	-13.546	
0.300	-7.308	
0.400	-10.189	
0.500	-10.638	
0.600	-13.896	
0.700	-18.153	
0.800	-6.228	
0.900	-9.233	
1.000	-18.406	
1.100	-11.191	
1.200	-6.362	
1.300	-13.798	
1.400	-13.764	
1.500	-23.255	
1.600	-21.663	
1.700	-28.275	
1.800	-14.515	
1.900	-0.713	
2.000	-6.267	
2.100	-12.760	
2.200	-17.732	
2.300	-8.890	
2.400	-9.469	
2.500	-25.009	
2.600	-11.943	
2.700	2.894	
2.800	-1.492	
2.900	-15.455	
3.000	-3.495	
3.100	0.285	
3.200	-16.680	
3.300	-12.970	
3.400	-22.992	
3.500	-9.577	
3.600	-4.486	
3.700	-8.697	
3.800	-17.520	
3.900	-5.946	
4.000	-23.866	
4.100	-13.537	
4.200	-9.516	
4.300	-10.543	
4.400	-13.185	
4.500	-5.148	
4.600	-10.734	
4.700	-3.244	
4.800	-19.278	
4.900	-8.747	
5.000	-14.715	
5.100	-14.577	
5.200	-17.238	
5.300	-20.541	
5.400	-18.173	
5.500	-7.760	
5.600	2.551	
5.700	-27.682	
5.800	-5.618	
5.900	-21.047	
6.000	-8.298	
6.100	-4.615	
6.200	-6.235	
6.300	-17.326	
6.400	-11.653	
6.500	-11.129	
6.600	-8.036	
6.700	-10.665	
6.800	-0.933	
6.900	-21.615	
7.000	-7.969	
7.100	-25.225	
7.200	-11.396	
7.300	-19.841	
7.400	-20.523	
7.500	-21.839	
7.600	-19.407	
7.700	-4.436	
7.800	-25.885	
7.900	-1.615	
8.000	-11.548	
8.100	-16.488	
8.200	-10.416	
8.300	-21.486	
8.400	-0.858	
8.500	-20.215	
8.600	-11.040	
8.700	-6.579	
8.800	-32.978	
8.900	-1.477	
9.000	-11.047	
9.100	-7.122	
9.200	-11.291	
9.300	-6.408	
9.400	-32.215	
9.500	-25.800	
9.600	-15.427	
9.700	-18.178	
9.800	-10.393	
9.900	2.544	
10.000	-13.859	
10.100	-3.790	
10.200	-9.119	
10.300	-8.793	
10.400	-13.025	
10.500	-8.868	
10.600	-14.677	
10.700	-0.652	
10.800	-32.951	
10.900	-0.430	
11.000	-16.314	
11.100	-10.619	
11.200	-31.244	
11.300	-9.900	
11.400	-9.392	
11.500	-19.747	
11.600	-11.310	
11.700	-21.961	
11.800	0.772	
11.900	-24.149	
12.000	4.494	
12.100	-17.838	
12.200	-20.709	
12.300	-9.400	
12.400	-9.731	
12.500	-7.382	
12.600	-24.892	
12.700	-7.910	
12.800	-6.391	
12.900	-18.481	
13.000	-12.441	
13.100	-17.463	
13.200	2.265	
13.300	-29.677	
13.400	-8.352	
13.500	-4.930	
13.600	-19.686	
13.700	-14.607	
13.800	-0.325	
13.900	-9.985	
14.000	-25.704	
14.100	-1.519	
14.200	-24.019	
14.300	-9.677	
14.400	-15.713	
14.500	-14.762	
14.600	-8.592	
14.700	-29.253	
14.800	-4.897	
14.900	-29.468	
15.000	-21.505	
15.100	-8.349	
15.200	6.476	
15.300	-12.546	
15.400	-4.337	
15.500	-12.072	
15.600	-12.174	
15.700	-8.824	
15.800	-20.192	
15.900	-9.546	
16.000	-6.079	
16.100	-17.635	
16.200	-18.403	
16.300	-19.216	
16.400	-12.756	
16.500	-22.326	
16.600	-8.143	
16.700	-17.440	
16.800	-15.311	
16.900	-20.178	
17.000	-21.308	
17.100	-21.791	
17.200	-18.572	
17.300	6.656	
17.400	-20.215	
17.500	-8.177	
17.600	-30.164	
17.700	1.320	
17.800	-7.539	
17.900	-17.998	
18.000	-9.004	
18.100	-13.223	
18.200	-35.159	
18.300	-18.089	
18.400	5.470	
18.500	-7.169	
18.600	-11.172	
18.700	-8.263	
18.800	-10.025	
18.900	-14.472	
19.000	-17.702	
19.100	-18.814	
19.200	-24.711	
19.300	-14.046	
19.400	-15.091	
19.500	-15.749	
19.600	-13.628	
19.700	-12.387	
19.800	-16.200	
19.900	-4.441	
20.000	-17.313	
20.100	3.651	
20.200	-17.078	
20.300	-13.695	
20.400	-27.109	
20.500	-17.523	
20.600	-22.932	
20.700	0.211	
20.800	-5.520	
20.900	-10.276	
21.000	-5.554	
21.100	-7.302	
21.200	-0.738	
21.300	-12.084	
21.400	-17.667	
21.500	-23.806	
21.600	-16.540	
21.700	-0.984	
21.800	-4.137	
21.900	-24.701	
22.000	-12.124	
22.100	-0.788	
22.200	4.865	
22.300	-20.715	
22.400	-33.911	
22.500	-12.076	
22.600	12.066	
22.700	-7.190	
22.800	-7.163	
22.900	-8.959	
23.000	-17.907	
23.100	-8.689	
23.200	-18.705	
23.300	-10.184	
23.400	-18.100	
23.500	4.863	
23.600	-10.907	
23.700	-6.902	
23.800	-22.377	
23.900	-0.449	
24.000	-35.922	
24.100	-0.957	
24.200	-15.371	
24.300	-20.192	
24.400	-5.217	
24.500	-10.598	
24.600	-3.221	
24.700	-9.403	
24.800	-21.389	
24.900	-16.814	
25.000	-10.631	
25.100	-14.636	
25.200	-1.185	
25.300	-22.543	
25.400	-12.425	
25.500	-14.856	
25.600	-14.289	
25.700	3.163	
25.800	-12.158	
25.900	-4.035	
26.000	-16.955	
26.100	-23.551	
26.200	-2.349	
26.300	1.850	
26.400	-14.751	
26.500	-20.624	
26.600	-3.899	
26.700	-22.971	
26.800	-14.541	
26.900	-15.991	
27.000	-5.477	
27.100	-17.286	
27.200	-11.976	
27.300	-6.660	
27.400	-8.722	
27.500	-16.776	
27.600	0.864	
27.700	-26.999	
27.800	-21.995	
27.900	-5.336	
28.000	-18.961	
28.100	-7.288	
28.200	-11.459	
28.300	-10.252	
28.400	-6.776	
28.500	-26.156	
28.600	-10.694	
28.700	-12.536	
28.800	-18.245	
28.900	3.063	
29.000	-4.830	
29.100	-14.598	
29.200	-14.069	
29.300	-12.386	
29.400	-15.474	
29.500	-6.699	
29.600	-1.876	
29.700	-1.676	
29.800	-0.022	
29.900	-3.106	
30.000	9.292	
30.100	2.329	
30.200	8.147	
30.300	13.288	
30.400	11.644	
30.500	22.694	
30.600	6.632	
30.700	11.390	
30.800	17.598	
30.900	-0.702	
31.000	26.693	
31.100	35.281	
31.200	30.632	
31.300	19.978	
31.400	21.872	
31.500	18.092	
31.600	30.097	
31.700	34.722	
31.800	26.840	
31.900	24.951	
32.000	40.593	
32.100	38.242	
32.200	7.360	
32.300	43.509	
32.400	35.970	
32.500	23.044	
32.600	25.098	
32.700	35.708	
32.800	31.948	
32.900	28.611	
33.000	9.693	
33.100	43.224	
33.200	26.719	
33.300	23.113	
33.400	49.802	
33.500	22.641	
33.600	20.190	
33.700	34.566	
33.800	16.540	
33.900	21.681	
34.000	21.516	
34.100	22.634	
34.200	23.682	
34.300	30.322	
34.400	22.107	
34.500	30.470	
34.600	33.029	
34.700	36.059	
34.800	12.712	
34.900	28.764	
35.000	4.686	
35.100	25.672	
35.200	31.794	
35.300	30.675	
35.400	17.211	
35.500	16.947	
35.600	19.244	
35.700	12.351	
35.800	14.004	
35.900	24.669	
36.000	19.157	
36.100	12.036	
36.200	15.506	
36.300	14.515	
36.400	27.731	
36.500	11.173	
36.600	32.015	
36.700	27.702	
36.800	19.317	
36.900	12.967	
37.000	12.211	
37.100	12.847	
37.200	17.712	
37.300	20.396	
37.400	18.802	
37.500	33.094	
37.600	17.344	
37.700	16.849	
37.800	28.379	
37.900	10.408	
38.000	29.919	
38.100	9.051	
38.200	16.414	
38.300	15.927	
38.400	20.258	
38.500	19.065	
38.600	24.420	
38.700	33.947	
38.800	35.500	
38.900	22.549	
39.000	16.150	
39.100	22.641	
39.200	19.154	
39.300	29.805	
39.400	19.615	
39.500	23.201	
39.600	20.510	
39.700	15.012	
39.800	33.343	
39.900	35.385	
40.000	22.440	
40.100	27.960	
40.200	18.486	
40.300	22.767	
40.400	11.935	
40.500	28.620	
40.600	43.287	
40.700	26.135	
40.800	13.541	
40.900	36.145	
41.000	18.993	
41.100	17.958	
41.200	34.734	
41.300	28.338	
41.400	24.885	
41.500	26.696	
41.600	20.695	
41.700	16.261	
41.800	42.062	
41.900	39.113	
42.000	20.952	
42.100	23.462	
42.200	26.717	
42.300	29.328	
42.400	46.274	
42.500	26.707	
42.600	18.507	
42.700	33.665	
42.800	33.980	
42.900	30.175	
43.000	22.625	
43.100	36.618	
43.200	28.350	
43.300	35.469	
43.400	30.558	
43.500	26.138	
43.600	36.081	
43.700	10.783	
43.800	18.122	
43.900	27.771	
44.000	19.580	
44.100	44.050	
44.200	35.455	
44.300	35.841	
44.400	20.075	
44.500	31.978	
44.600	41.739	
44.700	33.161	
44.800	15.139	
44.900	33.830	
45.000	26.537	
45.100	26.517	
45.200	37.015	
45.300	18.557	
45.400	17.553	
45.500	31.087	
45.600	25.571	
45.700	23.825	
45.800	39.691	
45.900	33.945	
46.000	48.959	
46.100	25.239	
46.200	37.041	
46.300	34.775	
46.400	43.201	
46.500	29.820	
46.600	22.558	
46.700	35.625	
46.800	41.694	
46.900	29.178	
47.000	40.074	
47.100	28.853	
47.200	47.419	
47.300	35.460	
47.400	41.958	
47.500	28.454	
47.600	37.854	
47.700	46.040	
47.800	34.393	
47.900	35.170	
48.000	36.532	
48.100	38.323	
48.200	37.874	
48.300	38.115	
48.400	29.865	
48.500	21.120	
48.600	30.752	
48.700	49.830	
48.800	36.301	
48.900	34.890	
49.000	45.386	
49.100	23.648	
49.200	42.477	
49.300	29.766	
49.400	37.896	
49.500	27.939	
49.600	46.457	
49.700	31.591	
49.800	50.142	
49.900	39.093	
50.000	27.316	
50.100	47.208	
50.200	36.722	
50.300	47.355	
50.400	28.406	
50.500	41.018	
50.600	29.225	
50.700	44.680	
50.800	53.517	
50.900	44.004	
51.000	46.353	
51.100	45.910	
51.200	34.507	
51.300	40.007	
51.400	59.984	
51.500	32.820	
51.600	34.132	
51.700	27.494	
51.800	43.977	
51.900	40.844	
52.000	42.414	
52.100	56.499	
52.200	35.650	
52.300	40.931	
52.400	36.415	
52.500	45.690	
52.600	42.112	
52.700	39.143	
52.800	41.118	
52.900	38.382	
53.000	47.135	
53.100	45.055	
53.200	35.788	
53.300	49.240	
53.400	32.797	
53.500	50.924	
53.600	46.445	
53.700	36.094	
53.800	47.079	
53.900	44.380	
54.000	46.800	
54.100	40.530	
54.200	61.651	
54.300	40.433	
54.400	44.843	
54.500	45.249	
54.600	42.148	
54.700	44.075	
54.800	45.436	
54.900	55.176	
55.000	61.779	
55.100	43.581	
55.200	43.906	
55.300	47.600	
55.400	45.527	
55.500	45.515	
55.600	40.604	
55.700	46.694	
55.800	35.130	
55.900	53.789	
56.000	36.406	
56.100	48.902	
56.200	54.772	
56.300	39.696	
56.400	44.295	
56.500	56.624	
56.600	40.248	
56.700	64.380	
56.800	62.871	
56.900	38.485	
57.000	43.050	
57.100	36.479	
57.200	58.902	
57.300	47.478	
57.400	33.228	
57.500	36.519	
57.600	45.179	
57.700	48.104	
57.800	54.849	
57.900	51.656	
58.000	49.605	
58.100	49.868	
58.200	48.521	
58.300	55.803	
58.400	49.591	
58.500	47.936	
58.600	46.868	
58.700	46.191	
58.800	42.800	
58.900	51.295	
59.000	49.855	
59.100	43.339	
59.200	53.456	
59.300	48.990	
59.400	56.098	
59.500	55.035	
59.600	48.221	
59.700	41.316	
59.800	47.015	
59.900	43.310	
60.000	55.378	
60.100	54.235	
60.200	51.939	
60.300	59.100	
60.400	44.621	
60.500	53.311	
60.600	32.647	
60.700	71.762	
60.800	47.528	
60.900	51.728	
61.000	61.092	
61.100	45.445	
61.200	62.577	
61.300	51.167	
61.400	54.194	
61.500	54.018	
61.600	56.448	
61.700	54.148	
61.800	45.691	
61.900	58.247	
62.000	62.611	
62.100	49.843	
62.200	58.892	
62.300	45.274	
62.400	44.623	
62.500	56.215	
62.600	51.773	
62.700	50.872	
62.800	51.413	
62.900	61.288	
63.000	51.931	
63.100	49.747	
63.200	58.023	
63.300	51.640	
63.400	51.631	
63.500	62.717	
63.600	53.443	
63.700	60.727	
63.800	43.490	
63.900	57.301	
64.000	62.502	
64.100	53.831	
64.200	55.753	
64.300	64.040	
64.400	45.332	
64.500	53.508	
64.600	58.062	
64.700	45.619	
64.800	36.446	
64.900	41.762	
65.000	44.949	
65.100	53.202	
65.200	55.452	
65.300	56.073	
65.400	49.742	
65.500	48.510	
65.600	52.534	
65.700	44.229	
65.800	51.600	
65.900	53.625	
66.000	42.996	
66.100	42.608	
66.200	50.723	
66.300	47.491	
66.400	47.553	
66.500	43.337	
66.600	59.388	
66.700	59.191	
66.800	55.944	
66.900	61.286	
67.000	56.739	
67.100	39.513	
67.200	60.743	
67.300	64.322	
67.400	55.165	
67.500	58.827	
67.600	51.214	
67.700	67.671	
67.800	66.878	
67.900	45.366	
68.000	42.456	
68.100	59.738	
68.200	45.060	
68.300	50.434	
68.400	52.969	
68.500	49.898	
68.600	52.196	
68.700	51.714	
68.800	51.966	
68.900	52.072	
69.000	52.400	
69.100	56.088	
69.200	65.205	
69.300	40.881	
69.400	60.085	
69.500	54.808	
69.600	45.089	
69.700	49.124	
69.800	54.464	
69.900	46.537	
70.000	44.600	
70.100	68.388	
70.200	53.895	
70.300	35.796	
70.400	44.017	
70.500	67.365	
70.600	49.718	
70.700	48.032	
70.800	47.373	
70.900	57.653	
71.000	61.261	
71.100	46.984	
71.200	31.137	
71.300	55.591	
71.400	49.101	
71.500	43.362	
71.600	44.805	
71.700	55.997	
71.800	32.703	
71.900	50.212	
72.000	63.494	
72.100	46.284	
72.200	46.606	
72.300	52.574	
72.400	48.708	
72.500	44.953	
72.600	56.909	
72.700	51.972	
72.800	59.061	
72.900	49.499	
73.000	30.721	
73.100	47.239	
73.200	55.790	
73.300	56.903	
73.400	56.241	
73.500	47.754	
73.600	45.107	
73.700	46.283	
73.800	49.431	
73.900	49.668	
74.000	58.550	
74.100	52.922	
74.200	45.490	
74.300	51.908	
74.400	57.510	
74.500	50.453	
74.600	52.023	
74.700	46.293	
74.800	51.365	
74.900	35.269	
75.000	54.097	
75.100	63.153	
75.200	47.717	
75.300	41.163	
75.400	67.822	
75.500	62.532	
75.600	55.537	
75.700	49.254	
75.800	60.023	
75.900	47.311	
76.000	46.835	
76.100	52.051	
76.200	32.512	
76.300	50.560	
76.400	38.055	
76.500	45.952	
76.600	52.647	
76.700	53.864	
76.800	60.237	
76.900	41.342	
77.000	56.422	
77.100	56.480	
77.200	47.980	
77.300	44.208	
77.400	57.912	
77.500	44.986	
77.600	50.741	
77.700	42.257	
77.800	47.000	
77.900	45.579	
78.000	49.602	
78.100	36.857	
78.200	53.696	
78.300	37.325	
78.400	60.725	
78.500	51.616	
78.600	52.522	
78.700	60.233	
78.800	45.323	
78.900	58.339	
79.000	50.522	
79.100	52.519	
79.200	44.289	
79.300	59.060	
79.400	45.373	
79.500	49.057	
79.600	35.794	
79.700	51.351	
79.800	55.676	
79.900	39.847	
80.000	63.356	
80.100	44.352	
80.200	41.591	
80.300	49.163	
80.400	42.027	
80.500	54.462	
80.600	50.542	
80.700	38.552	
80.800	49.027	
80.900	51.708	
81.000	53.010	
81.100	50.998	
81.200	40.704	
81.300	33.954	
81.400	42.325	
81.500	48.651	
81.600	44.965	
81.700	48.612	
81.800	43.404	
81.900	49.394	
82.000	53.515	
82.100	44.516	
82.200	54.436	
82.300	52.813	
82.400	45.567	
82.500	36.179	
82.600	52.946	
82.700	48.900	
82.800	44.798	
82.900	55.182	
83.000	43.786	
83.100	60.550	
83.200	52.503	
83.300	46.833	
83.400	45.201	
83.500	43.258	
83.600	53.026	
83.700	58.389	
83.800	49.029	
83.900	56.004	
84.000	52.304	
84.100	51.788	
84.200	43.969	
84.300	44.590	
84.400	28.638	
84.500	50.696	
84.600	56.899	
84.700	55.251	
84.800	38.972	
84.900	48.623	
85.000	33.999	
85.100	57.959	
85.200	46.803	
85.300	38.603	
85.400	58.553	
85.500	45.032	
85.600	48.649	
85.700	54.322	
85.800	33.705	
85.900	27.436	
86.000	40.637	
86.100	37.573	
86.200	51.318	
86.300	54.560	
86.400	58.693	
86.500	37.555	
86.600	47.192	
86.700	49.279	
86.800	43.977	
86.900	35.508	
87.000	50.718	
87.100	36.266	
87.200	36.160	
87.300	46.138	
87.400	41.818	
87.500	30.399	
87.600	59.600	
87.700	53.574	
87.800	63.396	
87.900	51.953	
88.000	39.109	
88.100	54.930	
88.200	49.149	
88.300	33.546	
88.400	44.719	
88.500	26.871	
88.600	38.658	
88.700	58.332	
88.800	44.201	
88.900	47.677	
89.000	61.428	
89.100	35.006	
89.200	56.892	
89.300	37.803	
89.400	49.281	
89.500	51.822	
89.600	48.649	
89.700	35.715	
89.800	32.917	
89.900	40.380	
90.000	45.590	
90.100	24.632	
90.200	28.045	
90.300	22.596	
90.400	28.499	
90.500	21.519	
90.600	32.895	
90.700	47.337	
90.800	17.390	
90.900	21.368	
91.000	20.900	
91.100	11.776	
91.200	13.667	
91.300	30.160	
91.400	32.915	
91.500	17.287	
91.600	6.535	
91.700	13.241	
91.800	16.977	
91.900	28.042	
92.000	19.251	
92.100	17.381	
92.200	12.430	
92.300	8.797	
92.400	4.442	
92.500	7.456	
92.600	14.871	
92.700	2.133	
92.800	19.138	
92.900	4.552	
93.000	17.843	
93.100	10.693	
93.200	5.543	
93.300	-14.743	
93.400	5.204	
93.500	3.725	
93.600	0.587	
93.700	5.170	
93.800	-5.263	
93.900	-1.497	
94.000	8.635	
94.100	-0.641	
94.200	-2.799	
94.300	-8.831	
94.400	6.514	
94.500	-3.061	
94.600	-7.879	
94.700	-7.320	
94.800	2.534	
94.900	-0.192	
95.000	-7.278	
95.100	-1.785	
95.200	-4.197	
95.300	-16.613	
95.400	-7.918	
95.500	-5.142	
95.600	-10.793	
95.700	-11.412	
95.800	-6.721	
95.900	-13.563	
96.000	-4.304	
96.100	-17.231	
96.200	-10.110	
96.300	-6.292	
96.400	-15.957	
96.500	-9.024	
96.600	-9.042	
96.700	-13.443	
96.800	-7.013	
96.900	-19.881	
97.000	-6.313	
97.100	-17.214	
97.200	-7.018	
97.300	-14.435	
97.400	-9.858	
97.500	-28.972	
97.600	-19.632	
97.700	-18.282	
97.800	-7.147	
97.900	-14.522	
98.000	-22.583	
98.100	-11.917	
98.200	-13.026	
98.300	-3.888	
98.400	-11.061	
98.500	-6.990	
98.600	-13.092	
98.700	-27.157	
98.800	-3.914	
98.900	-9.639	
99.000	-28.402	
99.100	-6.339	
99.200	-10.215	
99.300	-5.607	
99.400	-9.814	
99.500	-4.473	
99.600	-12.262	
99.700	-18.281	
99.800	-13.104	
99.900	-18.249	
100.000	-23.460	
100.100	-19.540	
100.200	0.277	
100.300	-6.797	
100.400	-19.964	
100.500	0.247	
100.600	17.008	
100.700	-9.879	
100.800	-10.502	
100.900	-6.212	
101.000	0.438	
101.100	-13.183	
101.200	-20.946	
101.300	-7.529	
101.400	-5.582	
101.500	-6.287	
101.600	-7.173	
101.700	-19.331	
101.800	2.046	
101.900	-14.455	
102.000	4.184	
102.100	2.437	
102.200	-21.819	
102.300	-17.710	
102.400	-13.949	
102.500	-2.412	
102.600	-9.819	
102.700	-6.159	
102.800	-8.600	
102.900	-5.557	
103.000	-9.302	
103.100	-14.452	
103.200	-14.369	
103.300	-5.308	
103.400	-12.524	
103.500	-15.060	
103.600	-15.761	
103.700	-3.228	
103.800	-2.082	
103.900	-19.250	
104.000	-8.494	
104.100	-3.993	
104.200	0.047	
104.300	-8.948	
104.400	-21.965	
104.500	-0.144	
104.600	-24.371	
104.700	-8.038	
104.800	-11.604	
104.900	-12.006	
105.000	-4.152	
105.100	-15.185	
105.200	-12.794	
105.300	-19.006	
105.400	-9.014	
105.500	-13.325	
105.600	-21.679	
105.700	-0.923	
105.800	-18.715	
105.900	-16.843	
106.000	-21.562	
106.100	-15.858	
106.200	-20.199	
106.300	-2.944	
106.400	-1.905	
106.500	-11.344	
106.600	-15.847	
106.700	-22.563	
106.800	3.237	
106.900	-21.836	
107.000	-10.577	
107.100	-7.193	
107.200	-2.265	
107.300	-25.164	
107.400	-15.312	
107.500	-15.188	
107.600	-28.346	
107.700	-13.192	
107.800	-2.812	
107.900	-9.024	
108.000	-9.813	
108.100	-17.218	
108.200	-15.509	
108.300	-13.839	
108.400	-6.252	
108.500	-10.144	
108.600	-16.776	
108.700	2.255	
108.800	-22.383	
108.900	-2.592	
109.000	-13.993	
109.100	-26.430	
109.200	-19.492	
109.300	-18.515	
109.400	-15.853	
109.500	-12.101	
109.600	-19.734	
109.700	-16.336	
109.800	-17.548	
109.900	-10.494	
110.000	10.783	
110.100	-28.601	
110.200	-5.167	
110.300	-15.764	
110.400	-23.050	
110.500	-17.546	
110.600	-14.999	
110.700	-12.649	
110.800	-17.312	
110.900	-24.639	
111.000	-31.112	
111.100	-11.027	
111.200	-11.725	
111.300	-9.673	
111.400	-6.632	
111.500	-11.284	
111.600	-7.964	
111.700	-9.923	
111.800	-19.680	
111.900	-20.284	
112.000	-19.113	
112.100	-30.987	
112.200	5.769	
112.300	-9.325	
112.400	-13.121	
112.500	-21.571	
112.600	-19.030	
112.700	-7.899	
112.800	-13.868	
112.900	-4.226	
113.000	-6.449	
113.100	-7.848	
113.200	-12.243	
113.300	-38.576	
113.400	-12.574	
113.500	-10.581	
113.600	-19.742	
113.700	-5.468	
113.800	-17.542	
113.900	-21.812	
114.000	2.426	
114.100	-10.459	
114.200	-28.548	
114.300	-8.653	
114.400	-12.824	
114.500	-12.122	
114.600	-22.418	
114.700	-14.184	
114.800	-20.082	
114.900	-17.453	
115.000	-19.521	
115.100	-27.217	
115.200	-6.204	
115.300	-40.856	
115.400	-7.210	
115.500	-26.941	
115.600	-10.340	
115.700	-30.933	
115.800	-10.534	
115.900	-18.803	
116.000	-17.772	
116.100	-11.162	
116.200	-26.198	
116.300	-17.962	
116.400	-20.309	
116.500	-15.155	
116.600	-12.436	
116.700	-16.178	
116.800	-29.223	
116.900	-22.327	
117.000	-19.898	
117.100	-13.093	
117.200	-14.458	
117.300	-24.254	
117.400	-14.156	
117.500	-26.069	
117.600	-33.339	
117.700	-31.467	
117.800	-14.251	
117.900	-18.422	
118.000	-28.266	
118.100	-18.676	
118.200	-12.102	
118.300	-10.466	
118.400	-21.313	
118.500	-24.911	
118.600	-33.992	
118.700	-16.535	
118.800	-14.078	
118.900	-26.801	
119.000	-20.006	
119.100	-18.273	
119.200	-34.231	
119.300	-18.188	
119.400	-23.684	
119.500	-13.491	
119.600	-22.536	
119.700	-27.261	
119.800	-18.393	
119.900	-28.145	
120.000	-37.249	
120.100	-20.421	
120.200	-18.657	
120.300	-25.849	
120.400	-20.490	
120.500	-12.199	
120.600	-39.850	
120.700	-17.026	
120.800	-21.812	
120.900	-33.535	
121.000	-17.946	
121.100	-35.905	
121.200	-21.798	
121.300	-30.891	
121.400	-29.377	
121.500	-4.671	
121.600	-29.073	
121.700	-18.469	
121.800	-6.435	
121.900	-18.266	
122.000	-32.161	
122.100	-22.348	
122.200	-20.595	
122.300	-22.586	
122.400	-23.896	
122.500	-13.461	
122.600	-21.864	
122.700	-15.214	
122.800	-25.627	
122.900	-18.558	
123.000	-26.414	
123.100	-31.421	
123.200	-24.762	
123.300	-25.822	
123.400	-27.256	
123.500	-18.918	
123.600	-27.421	
123.700	-16.546	
123.800	-14.985	
123.900	-19.819	
124.000	-22.335	
124.100	-31.738	
124.200	-17.726	
124.300	-19.137	
124.400	-6.106	
124.500	-47.809	
124.600	-25.384	
124.700	-13.227	
124.800	-39.086	
124.900	-17.123	
125.000	-25.781	
125.100	-12.569	
125.200	-23.320	
125.300	-17.059	
125.400	-27.844	
125.500	-29.533	
125.600	-23.580	
125.700	-21.810	
125.800	-33.255	
125.900	-21.526	
126.000	-25.121	
126.100	-14.473	
126.200	-24.376	
126.300	-18.246	
126.400	-20.604	
126.500	-6.805	
126.600	-30.602	
126.700	-26.160	
126.800	-30.581	
126.900	-24.901	
127.000	-20.120	
127.100	-34.391	
127.200	-27.706	
127.300	-28.634	
127.400	-15.600	
127.500	-24.134	
127.600	-26.754	
127.700	-26.039	
127.800	-16.792	
127.900	-26.669	
128.000	-20.720	
128.100	-27.129	
128.200	-21.620	
128.300	-13.882	
128.400	-33.788	
128.500	-30.826	
128.600	-33.226	
128.700	-32.135	
128.800	-25.410	
128.900	-21.539	
129.000	-30.695	
129.100	-36.416	
129.200	-10.212	
129.300	-22.961	
129.400	-21.206	
129.500	-34.210	
129.600	-31.060	
129.700	-23.436	
129.800	-21.469	
129.900	-14.891	
130.000	-22.983	
130.100	-34.083	
130.200	-15.129	
130.300	-24.601	
130.400	-30.036	
130.500	-25.745	
130.600	-28.685	
130.700	-24.070	
130.800	-26.974	
130.900	-23.094	
131.000	-31.931	
131.100	-12.341	
131.200	-45.812	
131.300	-11.154	
131.400	-19.372	
131.500	-23.452	
131.600	-31.768	
131.700	-18.005	
131.800	-22.667	
131.900	-38.211	
132.000	-23.146	
132.100	-31.311	
132.200	-11.190	
132.300	-24.413	
132.400	-13.507	
132.500	-25.183	
132.600	-40.262	
132.700	-27.403	
132.800	-24.620	
132.900	-28.492	
133.000	-14.933	
133.100	-28.924	
133.200	-24.999	
133.300	-12.590	
133.400	-24.649	
133.500	-27.473	
133.600	-27.920	
133.700	-24.365	
133.800	-30.956	
133.900	-24.811	
134.000	-9.256	
134.100	-16.709	
134.200	-34.151	
134.300	-21.153	
134.400	-25.486	
134.500	-16.859	
134.600	-19.153	
134.700	-27.342	
134.800	-20.029	
134.900	-28.564	
135.000	-13.673	
135.100	-29.812	
135.200	-15.637	
135.300	-19.113	
135.400	-26.304	
135.500	-30.992	
135.600	-18.410	
135.700	-17.362	
135.800	-33.134	
135.900	-17.343	
136.000	-16.605	
136.100	-37.118	
136.200	-23.605	
136.300	-30.204	
136.400	-13.574	
136.500	-24.221	
136.600	-27.043	
136.700	-21.697	
136.800	-22.751	
136.900	-8.112	
137.000	-35.263	
137.100	-31.191	
137.200	-14.937	
137.300	-15.529	
137.400	-20.258	
137.500	-24.680	
137.600	-34.300	
137.700	-14.880	
137.800	-30.155	
137.900	-16.835	
138.000	-13.683	
138.100	-30.696	
138.200	-24.524	
138.300	-27.995	
138.400	-22.832	
138.500	-16.316	
138.600	-16.296	
138.700	-24.766	
138.800	-37.956	
138.900	-21.182	
139.000	-23.697	
139.100	-40.609	
139.200	-20.692	
139.300	-8.724	
139.400	-17.659	
139.500	-25.383	
139.600	-18.257	
139.700	-29.425	
139.800	-20.490	
139.900	-34.620	
140.000	-4.971	
140.100	-23.194	
140.200	-23.738	
140.300	-32.323	
140.400	-7.959	
140.500	-13.754	
140.600	-3.223	
140.700	-22.422	
140.800	-8.269	
140.900	-10.920	
141.000	-27.368	
141.100	-28.778	
141.200	-24.292	
141.300	-16.677	
141.400	-16.298	
141.500	-27.085	
141.600	-28.251	
141.700	-23.563	
141.800	-32.615	
141.900	-10.192	
142.000	-29.760	
142.100	-23.817	
142.200	-14.715	
142.300	-22.179	
142.400	-35.778	
142.500	-22.073	
142.600	-41.447	
142.700	-8.180	
142.800	-32.422	
142.900	-26.821	
143.000	-24.689	
143.100	-12.506	
143.200	-31.067	
143.300	-27.644	
143.400	-23.676	
143.500	-23.223	
143.600	-30.976	
143.700	-22.942	
143.800	-12.258	
143.900	-29.100	
144.000	-16.605	
144.100	-22.950	
144.200	-33.884	
144.300	-7.934	
144.400	-26.881	
144.500	-10.727	
144.600	-8.667	
144.700	-22.775	
144.800	-37.205	
144.900	-25.314	
145.000	-25.145	
145.100	-15.779	
145.200	-15.976	
145.300	-21.269	
145.400	-19.064	
145.500	-16.436	
145.600	-17.248	
145.700	-29.887	
145.800	-5.271	
145.900	-41.178	
146.000	0.700	
146.100	-12.588	
146.200	-26.406	
146.300	-31.876	
146.400	-7.180	
146.500	-28.581	
146.600	-6.248	
146.700	-14.411	
146.800	-21.751	
146.900	-8.392	
147.000	-27.029	
147.100	-18.731	
147.200	-31.584	
147.300	-20.477	
147.400	-8.914	
147.500	-20.504	
147.600	-10.392	
147.700	-11.736	
147.800	-36.946	
147.900	-11.550	
148.000	-13.589	
148.100	-11.747	
148.200	-39.460	
148.300	-11.708	
148.400	-31.204	
148.500	-23.800	
148.600	-18.515	
148.700	-19.561	
148.800	-42.571	
148.900	-10.707	
149.000	-18.884	
149.100	-22.774	
149.200	-22.473	
149.300	-22.712	
149.400	-22.608	
149.500	-28.575	
149.600	-11.605	
149.700	-13.919	
149.800	-39.279	
149.900	-16.750	
150.000	-9.736	
150.100	-27.942	
150.200	-10.724	
150.300	-3.184	
150.400	-26.961	
150.500	-14.873	
150.600	-18.722	
150.700	-17.774	
150.800	-14.538	
150.900	-23.952	
151.000	-25.784	
151.100	-15.472	
151.200	-15.879	
151.300	-27.290	
151.400	-5.614	
151.500	-4.215	
151.600	-16.640	
151.700	-21.680	
151.800	-12.326	
151.900	-17.707	
152.000	0.946	
152.100	-22.743	
152.200	-36.973	
152.300	-25.388	
152.400	-23.890	
152.500	-26.795	
152.600	-22.343	
152.700	-15.835	
152.800	-17.009	
152.900	-4.979	
153.000	-22.110	
153.100	-26.134	
153.200	-33.676	
153.300	-17.898	
153.400	-21.313	
153.500	-30.405	
153.600	-15.336	
153.700	-21.301	
153.800	-34.788	
153.900	-11.466	
154.000	-26.510	
154.100	-17.547	
154.200	-24.730	
154.300	-21.310	
154.400	-15.256	
154.500	-9.633	
154.600	-13.345	
154.700	-2.049	
154.800	-35.481	
154.900	-35.010	
155.000	-12.022	
155.100	-17.910	
155.200	-23.141	
155.300	-16.738	
155.400	-18.239	
155.500	-17.814	
155.600	-15.149	
155.700	-22.852	
155.800	-18.668	
155.900	-21.505	
156.000	-3.342	
156.100	-15.966	
156.200	-16.157	
156.300	-20.583	
156.400	-27.570	
156.500	-16.347	
156.600	-26.795	
156.700	-12.244	
156.800	-17.188	
156.900	-8.315	
157.000	-16.605	
157.100	-29.719	
157.200	-3.742	
157.300	-14.765	
157.400	-4.992	
157.500	-22.963	
157.600	-8.475	
157.700	-22.708	
157.800	-34.971	
157.900	-27.808	
158.000	-15.587	
158.100	-17.713	
158.200	-22.401	
158.300	1.029	
158.400	-31.565	
158.500	-26.313	
158.600	-18.355	
158.700	-18.804	
158.800	-2.595	
158.900	-22.175	
159.000	-18.614	
159.100	-15.692	
159.200	-21.715	
159.300	-25.828	
159.400	-6.399	
159.500	-11.787	
159.600	-21.927	
159.700	-10.712	
159.800	-17.817	
159.900	-27.745	
160.000	-21.716	
160.100	-29.301	
160.200	4.964	
160.300	-15.317	
160.400	-22.849	
160.500	-27.576	
160.600	-8.436	
160.700	-18.347	
160.800	-30.607	
160.900	-4.744	
161.000	-15.271	
161.100	-30.368	
161.200	-12.317	
161.300	-10.439	
161.400	-9.193	
161.500	-21.235	
161.600	-18.262	
161.700	-36.690	
161.800	-14.567	
161.900	-14.381	
162.000	-7.303	
162.100	-25.464	
162.200	-21.090	
162.300	-24.955	
162.400	-23.107	
162.500	-14.194	
162.600	-22.789	
162.700	-17.766	
162.800	-8.926	
162.900	-21.049	
163.000	-15.516	
163.100	-20.715	
163.200	-7.609	
163.300	-16.126	
163.400	-20.832	
163.500	-8.023	
163.600	-18.400	
163.700	-20.667	
163.800	-12.584	
163.900	-16.604	
164.000	-29.643	
164.100	-6.812	
164.200	-11.131	
164.300	-14.837	
164.400	-28.316	
164.500	-5.768	
164.600	-16.020	
164.700	-17.839	
164.800	-37.353	
164.900	-18.702	
165.000	-19.546	
165.100	0.005	
165.200	-15.665	
165.300	-15.343	
165.400	-20.354	
165.500	0.960	
165.600	-22.938	
165.700	-23.390	
165.800	-13.647	
165.900	-13.880	
166.000	-11.905	
166.100	-12.771	
166.200	-14.115	
166.300	-12.387	
166.400	-12.796	
166.500	-16.403	
166.600	-7.011	
166.700	-10.389	
166.800	-28.793	
166.900	-20.618	
167.000	-13.168	
167.100	-16.793	
167.200	-25.959	
167.300	-9.363	
167.400	-10.377	
167.500	-19.260	
167.600	-9.180	
167.700	0.300	
167.800	-27.933	
167.900	-23.227	
168.000	-3.255	
168.100	-28.258	
168.200	-4.819	
168.300	-15.857	
168.400	-3.428	
168.500	-26.682	
168.600	-10.408	
168.700	-37.955	
168.800	-13.179	
168.900	-9.571	
169.000	-7.223	
169.100	-12.826	
169.200	-24.238	
169.300	-12.772	
169.400	-22.988	
169.500	-19.388	
169.600	-5.109	
169.700	-2.802	
169.800	-30.977	
169.900	-18.050	
170.000	-20.796	
170.100	-11.889	
170.200	-14.240	
170.300	-39.435	
170.400	-2.723	
170.500	-14.733	
170.600	-43.706	
170.700	-0.724	
170.800	-13.245	
170.900	-29.974	
171.000	-29.422	
171.100	-13.070	
171.200	-20.932	
171.300	-12.745	
171.400	-17.141	
171.500	-15.255	
171.600	-3.633	
171.700	-16.145	
171.800	-25.099	
171.900	-7.041	
172.000	-29.474	
172.100	-1.030	
172.200	-18.707	
172.300	-18.548	
172.400	-18.454	
172.500	-17.988	
172.600	-14.542	
172.700	-9.595	
172.800	-8.644	
172.900	-22.526	
173.000	-21.716	
173.100	-8.049	
173.200	-24.439	
173.300	-14.376	
173.400	-18.201	
173.500	-4.766	
173.600	-15.404	
173.700	-23.263	
173.800	-23.359	
173.900	-2.228	
174.000	-12.847	
174.100	-12.166	
174.200	-20.141	
174.300	-20.484	
174.400	-6.110	
174.500	-3.413	
174.600	-16.180	
174.700	-18.989	
174.800	-5.045	
174.900	-22.585	
175.000	-7.038	
175.100	-13.531	
175.200	-17.060	
175.300	-20.328	
175.400	-9.970	
175.500	-5.024	
175.600	0.564	
175.700	-20.205	
175.800	-15.154	
175.900	-10.034	
176.000	-15.575	
176.100	-14.811	
176.200	-13.769	
176.300	-7.690	
176.400	-2.443	
176.500	-30.271	
176.600	-16.207	
176.700	-18.701	
176.800	-19.352	
176.900	-17.580	
177.000	-29.374	
177.100	-20.705	
177.200	-22.051	
177.300	-18.946	
177.400	1.587	
177.500	-18.349	
177.600	-12.783	
177.700	-17.572	
177.800	-18.246	
177.900	-20.712	
178.000	-8.690	
178.100	-3.221	
178.200	-42.008	
178.300	-12.382	
178.400	-12.032	
178.500	-25.918	
178.600	-7.550	
178.700	-8.623	
178.800	-11.250	
178.900	-23.914	
179.000	-21.848	
179.100	-16.204	
179.200	-13.039	
179.300	-7.158	
179.400	-8.353	
179.500	-12.212	
179.600	-8.801	
179.700	-12.423	
179.800	-10.167	
179.900	-18.189	
180.000	17.239	
180.100	3.524	
180.200	11.094	
180.300	11.855	
180.400	6.628	
180.500	29.210	
180.600	10.328	
180.700	23.789	
180.800	16.414	
180.900	14.243	
181.000	15.162	
181.100	22.989	
181.200	19.292	
181.300	38.410	
181.400	21.351	
181.500	20.984	
181.600	29.306	
181.700	24.486	
181.800	27.821	
181.900	17.952	
182.000	12.266	
182.100	29.395	
182.200	17.303	
182.300	23.589	
182.400	13.160	
182.500	13.417	
182.600	41.468	
182.700	21.988	
182.800	20.140	
182.900	17.947	
183.000	39.791	
183.100	5.370	
183.200	32.452	
183.300	20.072	
183.400	20.742	
183.500	32.581	
183.600	23.053	
183.700	27.211	
183.800	31.761	
183.900	25.994	
184.000	30.044	
184.100	40.769	
184.200	19.957	
184.300	15.891	
184.400	4.158	
184.500	23.395	
184.600	26.951	
184.700	23.491	
184.800	31.091	
184.900	8.791	
185.000	24.851	
185.100	21.790	
185.200	32.195	
185.300	5.444	
185.400	41.002	
185.500	22.768	
185.600	13.439	
185.700	27.074	
185.800	15.715	
185.900	4.254	
186.000	29.916	
186.100	17.877	
186.200	11.245	
186.300	13.825	
186.400	21.625	
186.500	23.757	
186.600	18.655	
186.700	25.998	
186.800	21.421	
186.900	23.693	
187.000	23.115	
187.100	23.612	
187.200	15.937	
187.300	12.786	
187.400	9.504	
187.500	17.219	
187.600	18.708	
187.700	46.697	
187.800	26.499	
187.900	16.340	
188.000	15.833	
188.100	34.233	
188.200	14.739	
188.300	29.474	
188.400	41.010	
188.500	32.332	
188.600	18.015	
188.700	15.240	
188.800	37.597	
188.900	29.477	
189.000	26.498	
189.100	25.057	
189.200	22.414	
189.300	16.998	
189.400	41.038	
189.500	24.978	
189.600	22.695	
189.700	34.912	
189.800	22.499	
189.900	27.682	
190.000	56.155	
190.100	24.981	
190.200	37.597	
190.300	27.107	
190.400	27.291	
190.500	41.720	
190.600	29.700	
190.700	34.937	
190.800	41.919	
190.900	35.852	
191.000	25.252	
191.100	38.943	
191.200	34.028	
191.300	43.775	
191.400	43.152	
191.500	29.399	
191.600	43.133	
191.700	26.067	
191.800	50.892	
191.900	43.173	
192.000	44.774	
192.100	52.168	
192.200	41.063	
192.300	48.804	
192.400	49.892	
192.500	34.026	
192.600	54.784	
192.700	44.536	
192.800	46.844	
192.900	52.444	
193.000	31.146	
193.100	36.029	
193.200	46.243	
193.300	51.744	
193.400	43.650	
193.500	55.825	
193.600	48.181	
193.700	48.030	
193.800	58.939	
193.900	50.638	
194.000	47.345	
194.100	55.872	
194.200	34.761	
194.300	63.030	
194.400	53.751	
194.500	47.125	
194.600	52.544	
194.700	32.135	
194.800	61.608	
194.900	48.080	
195.000	46.450	
195.100	34.999	
195.200	55.608	
195.300	50.645	
195.400	59.851	
195.500	62.924	
195.600	53.383	
195.700	66.675	
195.800	47.240	
195.900	48.986	
196.000	51.072	
196.100	56.655	
196.200	48.674	
196.300	51.665	
196.400	50.762	
196.500	56.682	
196.600	55.979	
196.700	62.514	
196.800	64.405	
196.900	58.670	
197.000	51.728	
197.100	48.714	
197.200	41.503	
197.300	45.861	
197.400	46.047	
197.500	58.060	
197.600	50.946	
197.700	70.397	
197.800	55.422	
197.900	53.822	
198.000	58.123	
198.100	60.579	
198.200	49.779	
198.300	55.372	
198.400	51.352	
198.500	57.131	
198.600	58.332	
198.700	62.231	
198.800	61.826	
198.900	32.664	
199.000	51.081	
199.100	57.889	
199.200	61.407	
199.300	64.318	
199.400	41.730	
199.500	51.630	
199.600	53.075	
199.700	59.469	
199.800	52.092	
199.900	46.986	
200.000	68.895	
200.100	49.879	
200.200	41.691	
200.300	55.841	
200.400	42.547	
200.500	53.649	
200.600	62.564	
200.700	44.544	
200.800	64.594	
200.900	49.918	
201.000	51.080	
201.100	59.445	
201.200	58.498	
201.300	50.238	
201.400	53.463	
201.500	52.436	
201.600	51.325	
201.700	61.076	
201.800	55.974	
201.900	34.234	
202.000	58.404	
202.100	68.652	
202.200	49.281	
202.300	47.061	
202.400	56.559	
202.500	48.891	
202.600	45.906	
202.700	60.219	
202.800	48.938	
202.900	60.054	
203.000	47.369	
203.100	48.463	
203.200	57.774	
203.300	57.046	
203.400	48.009	
203.500	52.045	
203.600	61.721	
203.700	53.202	
203.800	42.391	
203.900	59.403	
204.000	48.798	
204.100	35.694	
204.200	57.729	
204.300	66.031	
204.400	52.139	
204.500	64.686	
204.600	46.044	
204.700	53.097	
204.800	50.082	
204.900	47.144	
205.000	63.073	
205.100	49.101	
205.200	29.319	
205.300	62.677	
205.400	55.219	
205.500	60.639	
205.600	46.067	
205.700	55.973	
205.800	59.548	
205.900	60.424	
206.000	46.263	
206.100	35.322	
206.200	47.400	
206.300	50.443	
206.400	49.393	
206.500	54.337	
206.600	69.466	
206.700	50.737	
206.800	46.513	
206.900	57.235	
207.000	55.242	
207.100	49.052	
207.200	60.045	
207.300	45.264	
207.400	48.055	
207.500	59.426	
207.600	58.424	
207.700	61.274	
207.800	47.228	
207.900	55.786	
208.000	54.219	
208.100	62.053	
208.200	44.719	
208.300	45.734	
208.400	42.136	
208.500	54.758	
208.600	51.443	
208.700	61.203	
208.800	53.837	
208.900	44.865	
209.000	51.404	
209.100	50.747	
209.200	59.601	
209.300	37.237	
209.400	53.064	
209.500	55.339	
209.600	56.312	
209.700	42.962	
209.800	49.653	
209.900	63.927	
210.000	56.376	
210.100	43.505	
210.200	48.986	
210.300	55.000	
210.400	47.597	
210.500	55.445	
210.600	46.411	
210.700	61.761	
210.800	56.850	
210.900	56.277	
211.000	49.188	
211.100	43.872	
211.200	52.288	
211.300	37.482	
211.400	57.426	
211.500	55.410	
211.600	48.501	
211.700	51.506	
211.800	57.131	
211.900	40.625	
212.000	42.399	
212.100	61.230	
212.200	51.621	
212.300	53.569	
212.400	41.776	
212.500	46.667	
212.600	39.383	
212.700	58.446	
212.800	46.191	
212.900	56.801	
213.000	53.508	
213.100	43.442	
213.200	54.533	
213.300	64.770	
213.400	48.430	
213.500	40.191	
213.600	52.847	
213.700	54.931	
213.800	57.524	
213.900	26.778	
214.000	53.389	
214.100	52.634	
214.200	52.824	
214.300	51.828	
214.400	23.863	
214.500	57.359	
214.600	50.369	
214.700	57.853	
214.800	44.376	
214.900	44.285	
215.000	51.977	
215.100	43.927	
215.200	40.450	
215.300	62.585	
215.400	57.564	
215.500	50.535	
215.600	57.813	
215.700	51.902	
215.800	55.097	
215.900	52.624	
216.000	34.272	
216.100	50.853	
216.200	46.437	
216.300	55.076	
216.400	33.584	
216.500	35.370	
216.600	72.199	
216.700	53.916	
216.800	63.300	
216.900	52.034	
217.000	44.730	
217.100	50.113	
217.200	50.263	
217.300	55.644	
217.400	45.558	
217.500	54.820	
217.600	36.159	
217.700	49.650	
217.800	58.375	
217.900	51.097	
218.000	46.882	
218.100	54.719	
218.200	48.059	
218.300	54.983	
218.400	44.872	
218.500	49.745	
218.600	45.126	
218.700	51.774	
218.800	45.020	
218.900	43.795	
219.000	43.955	
219.100	53.578	
219.200	62.611	
219.300	57.257	
219.400	48.092	
219.500	53.939	
219.600	49.475	
219.700	41.400	
219.800	53.695	
219.900	47.876	
220.000	54.696	
220.100	60.971	
220.200	45.513	
220.300	57.289	
220.400	50.384	
220.500	38.393	
220.600	62.985	
220.700	48.799	
220.800	54.911	
220.900	57.154	
221.000	46.188	
221.100	36.378	
221.200	44.941	
221.300	46.346	
221.400	49.443	
221.500	49.497	
221.600	48.209	
221.700	39.477	
221.800	44.256	
221.900	49.624	
222.000	36.962	
222.100	50.109	
222.200	26.736	
222.300	60.384	
222.400	55.213	
222.500	58.616	
222.600	49.589	
222.700	43.216	
222.800	41.321	
222.900	41.592	
223.000	52.552	
223.100	51.588	
223.200	39.162	
223.300	36.316	
223.400	34.644	
223.500	48.517	
223.600	49.803	
223.700	40.616	
223.800	45.016	
223.900	41.479	
224.000	47.869	
224.100	56.435	
224.200	55.882	
224.300	50.496	
224.400	47.245	
224.500	49.141	
224.600	48.387	
224.700	53.848	
224.800	48.896	
224.900	37.971	
225.000	45.456	
225.100	44.293	
225.200	61.227	
225.300	50.087	
225.400	37.760	
225.500	55.918	
225.600	44.473	
225.700	45.914	
225.800	29.737	
225.900	61.256	
226.000	65.487	
226.100	50.867	
226.200	48.888	
226.300	52.512	
226.400	54.171	
226.500	35.232	
226.600	58.435	
226.700	41.123	
226.800	52.647	
226.900	49.537	
227.000	45.538	
227.100	58.101	
227.200	48.568	
227.300	51.056	
227.400	44.662	
227.500	53.092	
227.600	41.785	
227.700	47.916	
227.800	43.266	
227.900	42.697	
228.000	46.923	
228.100	59.135	
228.200	52.857	
228.300	52.675	
228.400	33.054	
228.500	64.160	
228.600	50.562	
228.700	30.880	
228.800	36.249	
228.900	56.653	
229.000	61.243	
229.100	43.081	
229.200	48.898	
229.300	21.178	
229.400	51.835	
229.500	54.363	
229.600	51.311	
229.700	46.898	
229.800	45.845	
229.900	44.168	
230.000	53.346	
230.100	44.299	
230.200	19.210	
230.300	46.486	
230.400	47.098	
230.500	38.273	
230.600	47.484	
230.700	57.804	
230.800	43.857	
230.900	34.024	
231.000	56.617	
231.100	51.431	
231.200	42.022	
231.300	42.357	
231.400	43.802	
231.500	54.597	
231.600	43.503	
231.700	50.002	
231.800	50.848	
231.900	59.669	
232.000	52.844	
232.100	37.449	
232.200	38.763	
232.300	46.570	
232.400	42.025	
232.500	42.662	
232.600	49.321	
232.700	52.264	
232.800	41.390	
232.900	47.184	
233.000	50.276	
233.100	30.735	
233.200	48.803	
233.300	48.489	
233.400	55.810	
233.500	45.411	
233.600	46.384	
233.700	47.058	
233.800	48.420	
233.900	41.241	
234.000	48.996	
234.100	54.357	
234.200	38.659	
234.300	55.813	
234.400	38.845	
234.500	37.071	
234.600	38.369	
234.700	48.528	
234.800	41.882	
234.900	38.157	
235.000	50.500	
235.100	59.991	
235.200	43.970	
235.300	55.979	
235.400	55.477	
235.500	37.111	
235.600	46.604	
235.700	55.118	
235.800	47.373	
235.900	47.896	
236.000	45.015	
236.100	50.547	
236.200	34.684	
236.300	43.222	
236.400	39.310	
236.500	50.419	
236.600	41.090	
236.700	53.939	
236.800	45.164	
236.900	32.406	
237.000	42.926	
237.100	56.476	
237.200	54.467	
237.300	39.712	
237.400	45.949	
237.500	37.455	
237.600	46.991	
237.700	36.115	
237.800	59.405	
237.900	43.768	
238.000	34.566	
238.100	35.556	
238.200	67.036	
238.300	53.289	
238.400	39.086	
238.500	38.227	
238.600	60.643	
238.700	39.885	
238.800	50.058	
238.900	45.026	
239.000	40.955	
239.100	56.252	
239.200	44.217	
239.300	44.372	
239.400	42.817	
239.500	32.675	
239.600	33.599	
239.700	35.486	
239.800	28.895	
239.900	43.886	
240.000	28.049	
240.100	31.783	
240.200	40.524	
240.300	42.588	
240.400	29.127	
240.500	19.415	
240.600	32.040	
240.700	18.276	
240.800	25.620	
240.900	21.420	
241.000	26.290	
241.100	33.874	
241.200	21.242	
241.300	16.034	
241.400	27.735	
241.500	11.340	
241.600	22.198	
241.700	17.399	
241.800	9.110	
241.900	17.717	
242.000	17.528	
242.100	16.473	
242.200	4.260	
242.300	0.968	
242.400	7.380	
242.500	12.123	
242.600	14.342	
242.700	6.354	
242.800	10.098	
242.900	4.106	
243.000	9.425	
243.100	-5.111	
243.200	-1.990	
243.300	9.697	
243.400	0.811	
243.500	2.210	
243.600	7.148	
243.700	-12.691	
243.800	21.454	
243.900	3.271	
244.000	-4.533	
244.100	1.136	
244.200	-2.564	
244.300	-8.094	
244.400	-14.870	
244.500	-9.385	
244.600	-15.289	
244.700	5.260	
244.800	-10.546	
244.900	-31.608	
245.000	-13.470	
245.100	-13.371	
245.200	-20.063	
245.300	-17.101	
245.400	-22.530	
245.500	-11.458	
245.600	-16.218	
245.700	-4.004	
245.800	-27.274	
245.900	-15.731	
246.000	-18.567	
246.100	-33.462	
246.200	-15.344	
246.300	-23.784	
246.400	-21.634	
246.500	-9.522	
246.600	-14.506	
246.700	-13.151	
246.800	-6.341	
246.900	-34.627	
247.000	-24.350	
247.100	-21.501	
247.200	-12.766	
247.300	-22.748	
247.400	-13.746	
247.500	-25.305	
247.600	-6.180	
247.700	-37.080	
247.800	-19.116	
247.900	-12.221	
248.000	-12.174	
248.100	-17.642	
248.200	-4.700	
248.300	-34.396	
248.400	-24.726	
248.500	9.254	
248.600	-23.649	
248.700	-14.017	
248.800	-18.946	
248.900	-34.155	
249.000	-18.988	
249.100	-14.637	
249.200	-14.163	
249.300	-14.275	
249.400	-13.349	
249.500	-21.570	
249.600	-20.696	
249.700	-23.387	
249.800	-22.767	
249.900	-23.229	
250.000	-4.205	
250.100	-12.663	
250.200	-13.041	
250.300	-5.457	
250.400	-23.164	
250.500	-12.782	
250.600	-16.942	
250.700	-0.935	
250.800	-32.641	
250.900	-6.943	
251.000	-13.581	
251.100	-25.089	
251.200	-17.288	
251.300	-17.547	
251.400	-14.842	
251.500	-11.022	
251.600	-16.518	
251.700	-18.765	
251.800	-9.587	
251.900	-13.204	
252.000	-18.441	
252.100	-6.969	
252.200	-21.384	
252.300	-25.642	
252.400	-19.748	
252.500	-17.157	
252.600	-18.941	
252.700	-17.069	
252.800	-9.919	
252.900	-17.452	
253.000	-14.032	
253.100	-15.173	
253.200	-21.232	
253.300	-10.106	
253.400	-18.661	
253.500	-8.981	
253.600	-14.113	
253.700	-13.526	
253.800	-13.219	
253.900	-11.568	
254.000	-11.492	
254.100	-17.456	
254.200	-19.882	
254.300	-23.523	
254.400	-14.945	
254.500	-16.294	
254.600	-11.991	
254.700	-12.087	
254.800	-10.261	
254.900	-18.321	
255.000	-29.683	
255.100	-12.869	
255.200	-19.598	
255.300	-25.368	
255.400	-2.279	
255.500	-16.717	
255.600	-24.697	
255.700	-7.928	
255.800	-9.469	
255.900	-10.945	
256.000	-14.101	
256.100	-21.882	
256.200	-25.337	
256.300	-2.775	
256.400	-24.700	
256.500	-18.924	
256.600	-18.642	
256.700	-26.922	
256.800	-13.500	
256.900	-10.013	
257.000	-11.402	
257.100	-15.968	
257.200	-24.601	
257.300	-18.215	
257.400	-10.849	
257.500	-18.805	
257.600	-18.044	
257.700	-11.784	
257.800	-10.202	
257.900	-9.996	
258.000	-23.277	
258.100	-17.376	
258.200	-14.802	
258.300	-12.991	
258.400	-19.259	
258.500	-13.092	
258.600	-15.670	
258.700	-15.325	
258.800	-18.832	
258.900	-13.632	
259.000	-25.589	
259.100	-20.902	
259.200	-20.388	
259.300	-20.542	
259.400	-16.797	
259.500	-9.385	
259.600	-30.610	
259.700	-20.861	
259.800	-21.124	
259.900	-24.491	
260.000	-23.696	
260.100	-29.668	
260.200	-35.658	
260.300	-19.616	
260.400	-18.359	
260.500	-9.971	
260.600	-28.893	
260.700	-21.453	
260.800	-17.378	
260.900	-14.775	
261.000	-12.247	
261.100	-8.464	
261.200	-27.759	
261.300	-24.762	
261.400	-9.414	
261.500	-16.038	
261.600	-20.882	
261.700	-22.164	
261.800	-8.008	
261.900	-10.404	
262.000	-16.617	
262.100	-19.013	
262.200	-38.722	
262.300	-21.704	
262.400	-9.356	
262.500	-12.098	
262.600	-28.141	
262.700	-31.500	
262.800	-20.746	
262.900	-17.547	
263.000	-16.412	
263.100	-29.043	
263.200	-26.125	
263.300	-18.592	
263.400	-32.071	
263.500	-15.081	
263.600	-29.595	
263.700	-37.400	
263.800	-10.211	
263.900	-17.962	
264.000	-6.838	
264.100	-25.503	
264.200	-27.722	
264.300	-30.525	
264.400	-22.149	
264.500	-12.082	
264.600	-30.664	
264.700	-18.229	
264.800	-22.649	
264.900	-4.135	
265.000	-30.611	
265.100	-36.279	
265.200	-14.967	
265.300	-21.345	
265.400	-21.999	
265.500	-19.021	
265.600	-25.276	
265.700	-19.869	
265.800	-30.965	
265.900	-28.850	
266.000	-25.204	
266.100	-21.254	
266.200	-26.755	
266.300	-32.177	
266.400	-22.551	
266.500	-14.769	
266.600	-10.714	
266.700	-21.189	
266.800	-12.718	
266.900	-24.640	
267.000	-31.808	
267.100	-29.647	
267.200	-20.285	
267.300	-25.532	
267.400	-27.750	
267.500	-7.940	
267.600	-22.405	
267.700	-14.584	
267.800	-36.953	
267.900	-22.895	
268.000	-7.532	
268.100	-22.885	
268.200	-31.795	
268.300	-26.943	
268.400	-29.809	
268.500	-21.515	
268.600	-30.592	
268.700	-17.257	
268.800	-14.184	
268.900	-45.650	
269.000	-21.252	
269.100	-33.331	
269.200	-25.564	
269.300	-37.804	
269.400	-16.267	
269.500	-13.737	
269.600	-15.005	
269.700	-32.153	
269.800	-16.388	
269.900	-25.835	
270.000	-25.670	
270.100	-19.182	
270.200	-36.629	
270.300	-34.233	
270.400	-28.006	
270.500	-17.526	
270.600	-28.897	
270.700	-13.056	
270.800	-27.738	
270.900	-20.907	
271.000	-40.776	
271.100	-23.846	
271.200	-20.754	
271.300	-29.293	
271.400	-33.397	
271.500	-14.702	
271.600	-22.278	
271.700	-26.272	
271.800	-12.032	
271.900	-20.219	
272.000	-23.823	
272.100	-26.352	
272.200	-24.886	
272.300	-7.277	
272.400	-8.495	
272.500	-39.633	
272.600	-25.721	
272.700	-40.116	
272.800	-18.003	
272.900	-20.196	
273.000	-25.517	
273.100	-30.412	
273.200	-23.429	
273.300	-21.700	
273.400	-25.090	
273.500	-11.639	
273.600	-30.109	
273.700	-15.842	
273.800	-17.784	
273.900	-33.484	
274.000	-20.115	
274.100	-32.490	
274.200	-19.582	
274.300	-39.190	
274.400	-40.022	
274.500	-17.685	
274.600	-36.331	
274.700	-24.961	
274.800	-19.172	
274.900	-25.708	
275.000	-36.175	
275.100	-27.558	
275.200	-17.726	
275.300	-37.100	
275.400	-21.761	
275.500	-20.775	
275.600	-22.798	
275.700	-27.292	
275.800	-33.430	
275.900	-31.404	
276.000	-17.427	
276.100	-28.040	
276.200	-25.281	
276.300	-28.120	
276.400	-31.184	
276.500	-27.413	
276.600	-25.115	
276.700	-34.073	
276.800	-28.089	
276.900	-20.020	
277.000	-17.955	
277.100	-13.964	
277.200	-21.505	
277.300	-41.373	
277.400	-27.799	
277.500	-33.608	
277.600	-30.196	
277.700	-37.924	
277.800	-20.594	
277.900	-43.409	
278.000	-26.249	
278.100	-24.002	
278.200	-38.527	
278.300	-33.962	
278.400	-15.871	
278.500	-10.763	
278.600	-29.537	
278.700	-28.213	
278.800	-26.621	
278.900	-36.142	
279.000	-25.912	
279.100	-26.181	
279.200	-19.652	
279.300	-21.447	
279.400	-29.963	
279.500	-23.260	
279.600	-19.543	
279.700	-31.996	
279.800	-26.150	
279.900	-17.958	
280.000	-15.324	
280.100	-18.980	
280.200	-25.664	
280.300	-22.172	
280.400	-30.566	
280.500	-34.912	
280.600	-20.164	
280.700	-42.415	
280.800	-18.012	
280.900	-25.014	
281.000	-44.820	
281.100	-33.974	
281.200	-27.575	
281.300	-9.687	
281.400	-22.248	
281.500	-20.479	
281.600	-35.334	
281.700	-32.767	
281.800	-27.635	
281.900	-27.378	
282.000	-28.591	
282.100	-13.784	
282.200	-12.408	
282.300	-35.265	
282.400	-30.209	
282.500	-29.061	
282.600	-30.067	
282.700	-18.604	
282.800	-18.140	
282.900	-19.231	
283.000	-27.892	
283.100	-27.961	
283.200	-41.768	
283.300	-24.368	
283.400	-25.933	
283.500	-28.726	
283.600	-19.209	
283.700	-17.510	
283.800	-33.849	
283.900	-30.971	
284.000	-24.216	
284.100	-27.033	
284.200	-40.401	
284.300	-22.693	
284.400	-27.022	
284.500	-23.449	
284.600	-24.133	
284.700	-20.819	
284.800	-14.193	
284.900	-21.776	
285.000	-27.773	
285.100	-20.459	
285.200	-23.086	
285.300	-36.245	
285.400	-23.209	
285.500	-31.142	
285.600	-18.098	
285.700	-19.047	
285.800	-26.837	
285.900	-32.267	
286.000	-28.055	
286.100	-19.398	
286.200	-13.550	
286.300	-24.026	
286.400	-29.537	
286.500	-41.520	
286.600	-29.165	
286.700	-23.951	
286.800	-22.540	
286.900	-30.736	
287.000	-24.002	
287.100	-33.033	
287.200	-23.920	
287.300	-17.245	
287.400	-15.398	
287.500	-21.793	
287.600	-20.360	
287.700	-14.818	
287.800	-33.818	
287.900	-19.040	
288.000	-17.721	
288.100	-34.953	
288.200	-14.610	
288.300	-37.548	
288.400	-18.294	
288.500	-28.028	
288.600	-25.861	
288.700	-35.710	
288.800	-30.762	
288.900	-32.605	
289.000	-6.237	
289.100	-25.683	
289.200	-10.494	
289.300	-39.154	
289.400	-26.292	
289.500	-1.395	
289.600	-20.039	
289.700	-32.267	
289.800	-6.849	
289.900	-33.594	
290.000	-36.982	
290.100	-27.142	
290.200	-21.913	
290.300	-25.138	
290.400	-10.713	
290.500	-13.292	
290.600	-11.915	
290.700	-33.421	
290.800	-16.743	
290.900	-12.054	
291.000	-26.549	
291.100	-9.570	
291.200	-30.212	
291.300	-22.037	
291.400	-25.502	
291.500	-25.481	
291.600	-7.614	
291.700	-35.989	
291.800	-23.250	
291.900	-32.412	
292.000	-35.515	
292.100	-14.177	
292.200	-32.143	
292.300	-27.917	
292.400	-31.263	
292.500	-8.041	
292.600	-13.046	
292.700	-22.878	
292.800	-19.988	
292.900	-26.550	
293.000	-20.902	
293.100	-7.733	
293.200	-40.643	
293.300	-17.190	
293.400	-37.483	
293.500	-35.660	
293.600	-33.831	
293.700	-30.215	
293.800	-26.204	
293.900	-15.781	
294.000	-27.813	
294.100	-22.258	
294.200	-22.248	
294.300	-28.759	
294.400	-25.813	
294.500	-21.538	
294.600	-27.017	
294.700	-30.802	
294.800	-13.078	
294.900	-23.426	
295.000	-29.839	
295.100	-23.812	
295.200	-6.029	
295.300	-25.876	
295.400	-16.782	
295.500	-38.925	
295.600	-16.407	
295.700	-25.192	
295.800	-22.400	
295.900	-13.894	
296.000	-42.638	
296.100	-9.951	
296.200	-21.584	
296.300	-32.204	
296.400	-19.608	
296.500	-32.530	
296.600	-23.770	
296.700	-5.395	
296.800	-18.061	
296.900	-25.548	
297.000	-9.571	
297.100	-22.995	
297.200	-14.021	
297.300	-22.973	
297.400	-22.487	
297.500	-34.659	
297.600	-5.326	
297.700	-24.569	
297.800	-31.657	
297.900	-9.862	
298.000	-16.475	
298.100	-24.065	
298.200	-19.565	
298.300	-27.834	
298.400	-20.441	
298.500	-25.191	
298.600	-35.016	
298.700	-12.426	
298.800	-16.541	
298.900	-27.768	
299.000	-17.699	
299.100	-12.180	
299.200	-20.250	
299.300	-20.224	
299.400	-14.599	
299.500	-15.639	
299.600	-17.981	
299.700	-23.536	
299.800	-18.994	
299.900	-17.051	
300.000	-16.084	
300.100	-14.279	
300.200	-36.439	
300.300	-24.968	
300.400	-21.802	
300.500	-6.867	
300.600	-16.133	
300.700	-14.702	
300.800	-21.695	
300.900	-15.043	
301.000	-19.472	
301.100	-22.273	
301.200	-14.443	
301.300	-29.757	
301.400	-21.687	
301.500	-9.756	
301.600	-8.010	
301.700	-23.476	
301.800	-21.863	
301.900	-36.650	
302.000	-11.628	
302.100	-15.900	
302.200	-20.444	
302.300	-13.116	
302.400	-13.373	
302.500	-29.311	
302.600	-4.648	
302.700	-26.854	
302.800	-14.286	
302.900	-17.317	
303.000	-26.906	
303.100	-15.904	
303.200	-4.064	
303.300	-17.050	
303.400	-17.365	
303.500	-17.296	
303.600	-31.351	
303.700	-19.968	
303.800	-21.144	
303.900	-5.016	
304.000	-17.761	
304.100	-5.833	
304.200	-5.476	
304.300	-15.143	
304.400	-27.656	
304.500	-13.585	
304.600	-34.484	
304.700	-18.409	
304.800	-25.023	
304.900	-21.075	
305.000	-17.948	
305.100	-23.202	
305.200	-26.179	
305.300	-21.064	
305.400	-13.191	
305.500	-15.487	
305.600	-24.929	
305.700	-32.255	
305.800	-6.554	
305.900	-15.151	
306.000	-19.238	
306.100	-15.253	
306.200	-28.314	
306.300	-17.015	
306.400	-42.338	
306.500	-10.663	
306.600	-8.670	
306.700	-16.868	
306.800	-12.553	
306.900	-32.622	
307.000	5.752	
307.100	-20.452	
307.200	-29.637	
307.300	-17.601	
307.400	-16.375	
307.500	-11.267	
307.600	-23.838	
307.700	-22.989	
307.800	-38.472	
307.900	-23.331	
308.000	8.669	
308.100	-0.114	
308.200	-26.941	
308.300	-31.290	
308.400	-35.319	
308.500	-28.307	
308.600	-19.997	
308.700	-15.541	
308.800	-14.162	
308.900	-13.053	
309.000	-27.471	
309.100	-23.206	
309.200	-23.434	
309.300	-11.998	
309.400	-15.765	
309.500	-16.773	
309.600	-18.590	
309.700	-27.729	
309.800	-36.545	
309.900	4.949	
310.000	-18.228	
310.100	-19.341	
310.200	-13.512	
310.300	-22.616	
310.400	-21.630	
310.500	-9.648	
310.600	-21.119	
310.700	-7.303	
310.800	-19.358	
310.900	-16.206	
311.000	-26.931	
311.100	-7.170	
311.200	-16.773	
311.300	-20.369	
311.400	-30.337	
311.500	-10.819	
311.600	-16.806	
311.700	-20.199	
311.800	-10.485	
311.900	-23.216	
312.000	-8.920	
312.100	-13.823	
312.200	-15.197	
312.300	-15.468	
312.400	-20.194	
312.500	-25.478	
312.600	-5.715	
312.700	-10.427	
312.800	-22.578	
312.900	-25.180	
313.000	-13.158	
313.100	-23.698	
313.200	-21.937	
313.300	-13.838	
313.400	-24.499	
313.500	-24.003	
313.600	-5.436	
313.700	-24.202	
313.800	-14.568	
313.900	-20.161	
314.000	-22.106	
314.100	-13.178	
314.200	-15.275	
314.300	-26.198	
314.400	-24.175	
314.500	-24.724	
314.600	-23.042	
314.700	-19.394	
314.800	-16.212	
314.900	-19.125	
315.000	-19.779	
315.100	-11.472	
315.200	-9.925	
315.300	-22.143	
315.400	-12.138	
315.500	-16.806	
315.600	-25.365	
315.700	-16.047	
315.800	-19.168	
315.900	-20.727	
316.000	-17.434	
316.100	-17.638	
316.200	-20.618	
316.300	-14.353	
316.400	-20.562	
316.500	-13.376	
316.600	-12.457	
316.700	-25.332	
316.800	-10.140	
316.900	-18.444	
317.000	-15.262	
317.100	-9.258	
317.200	-36.261	
317.300	-7.685	
317.400	-21.648	
317.500	-23.748	
317.600	-17.541	
317.700	1.879	
317.800	-12.308	
317.900	-20.785	
318.000	-27.748	
318.100	-14.222	
318.200	-4.274	
318.300	-8.044	
318.400	-11.449	
318.500	-30.219	
318.600	-6.755	
318.700	-16.206	
318.800	-29.116	
318.900	-21.516	
319.000	-0.927	
319.100	-21.169	
319.200	-18.868	
319.300	-7.664	
319.400	-13.497	
319.500	-16.460	
319.600	-25.256	
319.700	-29.814	
319.800	-4.799	
319.900	-19.001	
320.000	-17.734	
320.100	-9.951	
320.200	-17.277	
320.300	-9.119	
320.400	-14.419	
320.500	-32.256	
320.600	5.337	
320.700	-14.755	
320.800	-15.013	
320.900	-11.656	
321.000	-8.164	
321.100	-28.122	
321.200	-23.266	
321.300	-0.545	
321.400	-19.684	
321.500	-13.300	
321.600	-13.546	
321.700	-21.427	
321.800	-14.345	
321.900	-11.386	
322.000	-1.783	
322.100	-24.681	
322.200	-16.509	
322.300	-24.556	
322.400	-9.423	
322.500	-3.714	
322.600	-18.085	
322.700	-26.262	
322.800	-0.412	
322.900	-20.468	
323.000	-18.877	
323.100	-28.058	
323.200	-20.952	
323.300	-5.620	
323.400	-20.432	
323.500	-21.494	
323.600	-8.478	
323.700	-5.126	
323.800	-24.532	
323.900	-1.231	
324.000	-12.996	
324.100	-21.207	
324.200	-33.509	
324.300	-17.623	
324.400	-21.107	
324.500	-18.285	
324.600	-31.558	
324.700	5.545	
324.800	-28.269	
324.900	-15.455	
325.000	-14.621	
325.100	-19.587	
325.200	-19.365	
325.300	-23.571	
325.400	-30.852	
325.500	-16.347	
325.600	-25.741	
325.700	-23.624	
325.800	-15.600	
325.900	-18.386	
326.000	-31.448	
326.100	4.053	
326.200	-24.581	
326.300	-2.863	
326.400	-17.987	
326.500	-14.566	
326.600	-15.880	
326.700	-12.092	
326.800	-25.432	
326.900	-16.514	
327.000	-8.597	
327.100	-13.289	
327.200	-24.133	
327.300	-27.202	
327.400	-20.601	
327.500	-19.662	
327.600	-20.994	
327.700	-0.515	
327.800	-16.302	
327.900	-15.788	
328.000	-11.727	
328.100	-30.282	
328.200	-13.091	
328.300	-8.816	
328.400	-16.617	
328.500	-20.255	
328.600	-9.039	
328.700	-16.302	
328.800	-16.229	
328.900	-10.914	
329.000	-21.920	
329.100	-25.194	
329.200	-10.075	
329.300	-16.138	
329.400	1.709	
329.500	-26.211	
329.600	-16.174	
329.700	-7.551	
329.800	-6.442	
329.900	-6.095	
330.000	1.249	
330.100	7.092	
330.200	9.883	
330.300	15.104	
330.400	9.252	
330.500	25.318	
330.600	4.960	
330.700	18.179	
330.800	20.374	
330.900	24.577	
331.000	16.988	
331.100	14.705	
331.200	16.678	
331.300	29.466	
331.400	18.971	
331.500	22.035	
331.600	21.427	
331.700	33.674	
331.800	19.931	
331.900	23.199	
332.000	20.516	
332.100	21.161	
332.200	18.586	
332.300	15.774	
332.400	37.518	
332.500	18.547	
332.600	37.013	
332.700	23.874	
332.800	22.600	
332.900	26.460	
333.000	3.562	
333.100	28.350	
333.200	27.130	
333.300	29.997	
333.400	23.599	
333.500	9.245	
333.600	33.966	
333.700	36.295	
333.800	20.383	
333.900	21.196	
334.000	24.169	
334.100	25.988	
334.200	30.360	
334.300	10.679	
334.400	28.969	
334.500	13.269	
334.600	26.503	
334.700	9.749	
334.800	28.616	
334.900	24.733	
335.000	20.161	
335.100	17.319	
335.200	27.081	
335.300	36.086	
335.400	16.118	
335.500	14.951	
335.600	35.727	
335.700	18.413	
335.800	11.322	
335.900	23.841	
336.000	8.035	
336.100	35.247	
336.200	13.200	
336.300	17.222	
336.400	19.262	
336.500	10.974	
336.600	26.796	
336.700	11.803	
336.800	17.860	
336.900	19.989	
337.000	22.048	
337.100	20.251	
337.200	23.110	
337.300	26.071	
337.400	15.587	
337.500	11.885	
337.600	35.477	
337.700	12.614	
337.800	9.905	
337.900	19.072	
338.000	26.325	
338.100	33.893	
338.200	19.597	
338.300	14.365	
338.400	24.116	
338.500	17.370	
338.600	29.323	
338.700	18.930	
338.800	25.654	
338.900	15.199	
339.000	23.855	
339.100	18.619	
339.200	32.479	
339.300	20.420	
339.400	21.061	
339.500	37.401	
339.600	23.126	
339.700	38.836	
339.800	34.193	
339.900	14.176	
340.000	35.319	
340.100	28.897	
340.200	44.540	
340.300	21.298	
340.400	33.018	
340.500	40.001	
340.600	34.770	
340.700	34.291	
340.800	41.607	
340.900	40.292	
341.000	25.336	
341.100	30.990	
341.200	51.278	
341.300	40.102	
341.400	18.318	
341.500	33.813	
341.600	21.516	
341.700	29.317	
341.800	46.808	
341.900	42.789	
342.000	38.975	
342.100	39.087	
342.200	33.663	
342.300	47.749	
342.400	40.141	
342.500	43.861	
342.600	48.474	
342.700	38.900	
342.800	32.919	
342.900	35.018	
343.000	30.859	
343.100	47.714	
343.200	51.630	
343.300	39.435	
343.400	53.388	
343.500	39.326	
343.600	61.076	
343.700	59.572	
343.800	46.236	
343.900	41.725	
344.000	48.329	
344.100	44.070	
344.200	44.306	
344.300	29.708	
344.400	49.225	
344.500	38.402	
344.600	60.340	
344.700	51.229	
344.800	55.745	
344.900	54.906	
345.000	34.301	
345.100	63.604	
345.200	44.356	
345.300	34.049	
345.400	69.868	
345.500	71.425	
345.600	44.978	
345.700	53.396	
345.800	44.999	
345.900	53.370	
346.000	51.021	
346.100	57.718	
346.200	37.428	
346.300	54.189	
346.400	47.000	
346.500	44.330	
346.600	54.964	
346.700	44.520	
346.800	58.689	
346.900	45.162	
347.000	46.319	
347.100	53.118	
347.200	51.064	
347.300	54.784	
347.400	50.658	
347.500	51.842	
347.600	35.616	
347.700	64.448	
347.800	31.068	
347.900	49.801	
348.000	65.110	
348.100	47.587	
348.200	40.621	
348.300	35.779	
348.400	51.573	
348.500	60.064	
348.600	50.966	
348.700	62.312	
348.800	53.815	
348.900	55.815	
349.000	41.982	
349.100	48.041	
349.200	54.720	
349.300	42.431	
349.400	56.779	
349.500	53.136	
349.600	48.827	
349.700	50.395	
349.800	52.327	
349.900	50.590	
350.000	61.562	
350.100	57.836	
350.200	59.124	
350.300	53.445	
350.400	48.635	
350.500	29.000	
350.600	60.661	
350.700	40.081	
350.800	53.261	
350.900	52.868	
351.000	43.094	
351.100	53.837	
351.200	52.566	
351.300	32.522	
351.400	60.941	
351.500	48.521	
351.600	54.961	
351.700	45.754	
351.800	63.790	
351.900	41.136	
352.000	48.350	
352.100	66.249	
352.200	49.191	
352.300	51.792	
352.400	57.868	
352.500	51.546	
352.600	47.592	
352.700	54.395	
352.800	44.243	
352.900	37.207	
353.000	52.248	
353.100	63.789	
353.200	59.188	
353.300	58.281	
353.400	50.432	
353.500	46.279	
353.600	49.778	
353.700	54.996	
353.800	38.108	
353.900	38.847	
354.000	59.355	
354.100	52.332	
354.200	62.317	
354.300	44.103	
354.400	50.440	
354.500	52.780	
354.600	37.787	
354.700	38.276	
354.800	57.073	
354.900	57.504	
355.000	52.681	
355.100	43.717	
355.200	48.248	
355.300	60.349	
355.400	59.906	
355.500	56.894	
355.600	47.996	
355.700	61.786	
355.800	46.010	
355.900	59.731	
356.000	59.847	
356.100	50.891	
356.200	52.625	
356.300	39.954	
356.400	61.980	
356.500	51.221	
356.600	45.539	
356.700	50.328	
356.800	60.414	
356.900	56.126	
357.000	34.609	
357.100	67.210	
357.200	45.042	
357.300	58.911	
357.400	48.211	
357.500	40.410	
357.600	62.294	
357.700	66.874	
357.800	29.717	
357.900	67.463	
358.000	64.796	
358.100	35.548	
358.200	58.039	
358.300	60.901	
358.400	43.498	
358.500	44.433	
358.600	52.265	
358.700	43.372	
358.800	38.350	
358.900	57.835	
359.000	53.293	
359.100	57.510	
359.200	49.796	
359.300	51.029	
359.400	49.704	
359.500	43.333	
359.600	59.450	
359.700	49.799	
359.800	61.771	
359.900	46.115	
360.000	62.351	
360.100	47.496	
360.200	51.344	
360.300	46.125	
360.400	67.980	
360.500	25.385	
360.600	46.976	
360.700	61.192	
360.800	62.685	
360.900	62.135	
361.000	53.293	
361.100	60.623	
361.200	54.019	
361.300	51.143	
361.400	41.606	
361.500	56.410	
361.600	54.332	
361.700	49.826	
361.800	48.759	
361.900	40.050	
362.000	81.851	
362.100	36.347	
362.200	69.753	
362.300	54.346	
362.400	54.323	
362.500	36.423	
362.600	51.003	
362.700	51.829	
362.800	51.276	
362.900	42.396	
363.000	53.239	
363.100	51.130	
363.200	54.807	
363.300	43.975	
363.400	58.238	
363.500	54.552	
363.600	51.530	
363.700	61.140	
363.800	46.347	
363.900	41.961	
364.000	49.647	
364.100	44.200	
364.200	33.608	
364.300	46.459	
364.400	60.352	
364.500	54.282	
364.600	52.387	
364.700	32.255	
364.800	67.106	
364.900	53.952	
365.000	37.082	
365.100	33.174	
365.200	54.377	
365.300	38.187	
365.400	50.906	
365.500	47.385	
365.600	56.845	
365.700	58.547	
365.800	64.399	
365.900	50.116	
366.000	47.811	
366.100	41.164	
366.200	68.422	
366.300	61.210	
366.400	40.467	
366.500	64.269	
366.600	49.081	
366.700	50.342	
366.800	55.597	
366.900	62.443	
367.000	41.408	
367.100	44.500	
367.200	56.364	
367.300	53.025	
367.400	55.113	
367.500	43.661	
367.600	61.273	
367.700	49.342	
367.800	38.658	
367.900	30.202	
368.000	55.013	
368.100	59.722	
368.200	46.494	
368.300	57.834	
368.400	54.920	
368.500	37.192	
368.600	53.622	
368.700	40.790	
368.800	50.557	
368.900	51.515	
369.000	63.243	
369.100	55.198	
369.200	34.173	
369.300	62.454	
369.400	47.904	
369.500	60.061	
369.600	37.878	
369.700	55.486	
369.800	54.868	
369.900	42.895	
370.000	56.446	
370.100	42.631	
370.200	54.936	
370.300	51.255	
370.400	49.997	
370.500	43.275	
370.600	45.185	
370.700	50.813	
370.800	58.300	
370.900	50.461	
371.000	48.844	
371.100	52.955	
371.200	39.453	
371.300	42.173	
371.400	47.929	
371.500	65.337	
371.600	40.364	
371.700	52.383	
371.800	59.915	
371.900	49.211	
372.000	57.663	
372.100	35.397	
372.200	47.824	
372.300	36.277	
372.400	43.433	
372.500	51.022	
372.600	46.570	
372.700	63.039	
372.800	41.296	
372.900	46.299	
373.000	53.134	
373.100	41.501	
373.200	66.705	
373.300	49.887	
373.400	33.443	
373.500	38.498	
373.600	68.742	
373.700	43.562	
373.800	49.344	
373.900	45.269	
374.000	57.374	
374.100	62.046	
374.200	49.673	
374.300	33.358	
374.400	45.834	
374.500	49.410	
374.600	43.075	
374.700	59.902	
374.800	56.905	
374.900	39.478	
375.000	47.254	
375.100	44.296	
375.200	33.462	
375.300	58.500	
375.400	43.756	
375.500	52.921	
375.600	43.549	
375.700	47.914	
375.800	51.266	
375.900	51.291	
376.000	38.079	
376.100	51.780	
376.200	45.561	
376.300	47.975	
376.400	45.329	
376.500	24.474	
376.600	40.135	
376.700	58.920	
376.800	54.225	
376.900	51.799	
377.000	53.342	
377.100	41.946	
377.200	38.805	
377.300	58.314	
377.400	48.605	
377.500	49.576	
377.600	35.505	
377.700	47.072	
377.800	53.795	
377.900	36.796	
378.000	62.524	
378.100	37.620	
378.200	53.906	
378.300	48.055	
378.400	33.520	
378.500	45.713	
378.600	50.803	
378.700	47.625	
378.800	41.972	
378.900	37.252	
379.000	52.283	
379.100	32.682	
379.200	69.883	
379.300	50.376	
379.400	53.320	
379.500	42.237	
379.600	54.200	
379.700	44.414	
379.800	41.631	
379.900	53.126	
380.000	50.736	
380.100	50.210	
380.200	51.458	
380.300	55.580	
380.400	37.476	
380.500	47.317	
380.600	46.459	
380.700	48.051	
380.800	49.321	
380.900	30.538	
381.000	60.376	
381.100	44.130	
381.200	39.487	
381.300	60.851	
381.400	57.644	
381.500	31.044	
381.600	49.355	
381.700	57.049	
381.800	51.145	
381.900	45.327	
382.000	30.210	
382.100	43.355	
382.200	49.742	
382.300	49.027	
382.400	45.452	
382.500	20.972	
382.600	42.324	
382.700	43.457	
382.800	48.304	
382.900	57.051	
383.000	27.277	
383.100	51.291	
383.200	40.364	
383.300	56.430	
383.400	50.712	
383.500	51.176	
383.600	55.650	
383.700	38.569	
383.800	54.041	
383.900	41.818	
384.000	32.209	
384.100	41.347	
384.200	48.076	
384.300	54.785	
384.400	49.005	
384.500	60.219	
384.600	47.380	
384.700	42.101	
384.800	49.372	
384.900	55.571	
385.000	43.749	
385.100	41.259	
385.200	36.225	
385.300	43.418	
385.400	49.748	
385.500	46.179	
385.600	36.269	
385.700	43.733	
385.800	52.380	
385.900	41.696	
386.000	52.823	
386.100	35.869	
386.200	29.323	
386.300	47.248	
386.400	38.929	
386.500	54.643	
386.600	47.893	
386.700	34.512	
386.800	52.459	
386.900	41.197	
387.000	36.059	
387.100	44.289	
387.200	49.509	
387.300	35.918	
387.400	61.249	
387.500	56.405	
387.600	46.605	
387.700	46.007	
387.800	49.473	
387.900	48.197	
388.000	30.958	
388.100	55.798	
388.200	41.198	
388.300	47.202	
388.400	51.878	
388.500	59.206	
388.600	48.736	
388.700	48.451	
388.800	32.059	
388.900	42.276	
389.000	46.640	
389.100	37.622	
389.200	56.693	
389.300	36.996	
389.400	45.058	
389.500	52.574	
389.600	44.025	
389.700	53.521	
389.800	34.157	
389.900	42.764	
390.000	35.029	
390.100	36.990	
390.200	36.005	
390.300	40.362	
390.400	34.257	
390.500	38.958	
390.600	29.380	
390.700	29.140	
390.800	30.318	
390.900	25.947	
391.000	30.557	
391.100	22.692	
391.200	28.042	
391.300	15.868	
391.400	19.353	
391.500	27.341	
391.600	12.734	
391.700	17.503	
391.800	20.092	
391.900	4.905	
392.000	22.604	
392.100	7.809	
392.200	15.593	
392.300	14.029	
392.400	17.898	
392.500	17.004	
392.600	4.591	
392.700	-7.013	
392.800	14.303	
392.900	13.238	
393.000	7.066	
393.100	9.442	
393.200	5.574	
393.300	8.610	
393.400	12.083	
393.500	3.715	
393.600	7.878	
393.700	-8.958	
393.800	2.633	
393.900	-3.442	
394.000	-7.210	
394.100	11.465	
394.200	-0.978	
394.300	-13.447	
394.400	-18.018	
394.500	-15.033	
394.600	-14.234	
394.700	-7.175	
394.800	-7.723	
394.900	-16.220	
395.000	-17.290	
395.100	-30.213	
395.200	-22.264	
395.300	-19.547	
395.400	-11.371	
395.500	-15.823	
395.600	-18.015	
395.700	-10.086	
395.800	-22.624	
395.900	-20.407	
396.000	-28.728	
396.100	-17.379	
396.200	-17.566	
396.300	-22.628	
396.400	-17.760	
396.500	-9.090	
396.600	-21.940	
396.700	-31.340	
396.800	-12.246	
396.900	-19.940	
397.000	-21.470	
397.100	-22.770	
397.200	-16.392	
397.300	-13.405	
397.400	-27.229	
397.500	-20.919	
397.600	-14.044	
397.700	-20.472	
397.800	-14.050	
397.900	-17.516	
398.000	-21.199	
398.100	-25.980	
398.200	0.059	
398.300	-22.662	
398.400	-16.606	
398.500	-26.684	
398.600	-28.974	
398.700	-23.338	
398.800	-19.269	
398.900	-16.832	
399.000	-6.597	
399.100	-30.037	
399.200	-9.650	
399.300	-12.953	
399.400	-2.258	
399.500	-28.535	
399.600	-11.299	
399.700	-19.222	
399.800	-7.748	
399.900	-8.228	
400.000	-8.376	
400.100	-7.452	
400.200	-14.564	
400.300	-15.425	
400.400	-17.918	
400.500	-18.668	
400.600	-27.661	
400.700	-12.188	
400.800	-4.656	
400.900	-19.386	
401.000	-12.584	
401.100	-16.835	
401.200	-8.530	
401.300	-11.284	
401.400	-19.349	
401.500	-24.420	
401.600	-22.956	
401.700	-5.351	
401.800	-23.320	
401.900	-13.578	
402.000	-12.860	
402.100	-4.319	
402.200	-13.432	
402.300	-27.040	
402.400	-11.426	
402.500	-1.429	
402.600	-15.870	
402.700	-29.202	
402.800	-30.519	
402.900	-3.122	
403.000	0.376	
403.100	-14.579	
403.200	1.128	
403.300	-16.026	
403.400	-14.337	
403.500	-7.651	
403.600	-21.704	
403.700	-10.586	
403.800	1.486	
403.900	-34.568	
404.000	-1.794	
404.100	-27.336	
404.200	-18.364	
404.300	-14.631	
404.400	-18.973	
404.500	-16.202	
404.600	-21.146	
404.700	-23.336	
404.800	-26.765	
404.900	-13.423	
405.000	-4.928	
405.100	-8.602	
405.200	-19.483	
405.300	-22.428	
405.400	-19.963	
405.500	-11.456	
405.600	-13.501	
405.700	-16.309	
405.800	-16.726	
405.900	0.901	
406.000	-4.267	
406.100	-17.477	
406.200	-20.885	
406.300	-28.842	
406.400	-12.456	
406.500	-23.869	
406.600	-10.684	
406.700	-24.217	
406.800	-0.525	
406.900	-24.730	
407.000	-23.023	
407.100	-10.731	
407.200	-17.295	
407.300	-10.474	
407.400	-9.881	
407.500	-27.043	
407.600	-7.966	
407.700	-22.462	
407.800	-15.025	
407.900	-13.066	
408.000	-29.182	
408.100	-20.586	
408.200	-5.050	
408.300	-16.612	
408.400	-10.706	
408.500	-27.463	
408.600	-8.086	
408.700	-14.622	
408.800	-21.488	
408.900	-15.809	
409.000	-6.468	
409.100	-12.552	
409.200	-22.973	
409.300	-20.437	
409.400	-27.788	
409.500	-15.911	
409.600	-24.594	
409.700	-23.181	
409.800	-17.490	
409.900	-21.010	
410.000	-21.533	
410.100	-21.495	
410.200	-22.821	
410.300	-23.164	
410.400	-19.991	
410.500	-12.810	
410.600	-17.504	
410.700	-13.905	
410.800	-15.309	
410.900	-20.014	
411.000	-18.478	
411.100	-14.757	
411.200	-35.632	
411.300	-35.228	
411.400	-11.212	
411.500	-18.079	
411.600	-17.321	
411.700	-15.693	
411.800	-19.460	
411.900	-22.812	
412.000	-11.060	
412.100	-31.233	
412.200	-25.235	
412.300	-8.468	
412.400	-26.367	
412.500	-16.057	
412.600	-19.500	
412.700	-8.263	
412.800	-12.687	
412.900	-18.867	
413.000	-10.327	
413.100	-23.205	
413.200	-16.407	
413.300	-26.429	
413.400	-23.114	
413.500	-8.870	
413.600	-18.400	
413.700	-17.432	
413.800	-5.425	
413.900	-28.014	
414.000	-12.600	
414.100	-25.076	
414.200	-16.717	
414.300	-23.744	
414.400	-13.806	
414.500	-22.857	
414.600	-18.767	
414.700	-17.547	
414.800	-25.542	
414.900	-15.650	
415.000	-28.894	
415.100	-21.378	
415.200	-17.376	
415.300	-26.873	
415.400	-20.018	
415.500	-4.405	
415.600	-31.145	
415.700	-23.336	
415.800	-13.708	
415.900	-19.236	
416.000	-27.322	
416.100	-32.197	
416.200	-12.412	
416.300	-17.993	
416.400	-19.326	
416.500	-18.151	
416.600	-41.752	
416.700	-30.572	
416.800	-11.803	
416.900	-23.095	
417.000	-18.399	
417.100	-25.621	
417.200	-19.060	
417.300	-31.664	
417.400	-11.997	
417.500	-26.350	
417.600	-25.838	
417.700	-26.214	
417.800	-31.430	
417.900	-34.007	
418.000	-17.199	
418.100	-33.855	
418.200	-15.394	
418.300	-30.045	
418.400	-18.676	
418.500	-13.425	
418.600	-24.619	
418.700	-19.888	
418.800	-34.483	
418.900	-19.250	
419.000	-17.650	
419.100	-19.437	
419.200	-24.761	
419.300	-18.712	
419.400	-29.073	
419.500	-34.114	
419.600	-15.459	
419.700	-30.198	
419.800	-24.141	
419.900	-21.212	
420.000	-22.432	
420.100	-45.098	
420.200	-21.861	
420.300	-24.655	
420.400	-29.993	
420.500	-17.741	
420.600	-18.875	
420.700	-30.659	
420.800	-30.779	
420.900	-33.171	
421.000	-36.507	
421.100	-28.599	
421.200	-14.501	
421.300	-32.079	
421.400	-7.124	
421.500	-28.481	
421.600	-34.559	
421.700	-21.537	
421.800	-35.481	
421.900	-26.439	
422.000	-28.430	
422.100	-13.488	
422.200	-31.234	
422.300	-15.758	
422.400	-18.316	
422.500	-28.471	
422.600	-27.933	
422.700	-27.060	
422.800	-30.193	
422.900	-32.313	
423.000	-25.499	
423.100	-34.954	
423.200	-13.187	
423.300	-54.413	
423.400	-16.117	
423.500	-17.773	
423.600	-33.572	
423.700	-34.200	
423.800	-14.979	
423.900	-30.568	
424.000	-33.739	
424.100	-7.907	
424.200	-38.389	
424.300	-41.151	
424.400	-28.944	
424.500	-24.187	
424.600	-22.821	
424.700	-9.863	
424.800	-35.194	
424.900	-38.462	
425.000	-25.854	
425.100	-25.978	
425.200	-33.055	
425.300	-37.376	
425.400	-15.496	
425.500	-23.579	
425.600	-33.645	
425.700	-12.440	
425.800	-35.307	
425.900	-25.250	
426.000	-24.981	
426.100	-12.460	
426.200	-30.675	
426.300	-21.489	
426.400	-39.615	
426.500	-28.843	
426.600	-25.186	
426.700	-18.597	
426.800	-22.271	
426.900	-23.105	
427.000	-24.992	
427.100	-27.868	
427.200	-22.637	
427.300	-27.313	
427.400	-21.272	
427.500	-28.392	
427.600	-20.732	
427.700	-39.939	
427.800	-30.678	
427.900	-17.806	
428.000	-45.572	
428.100	-14.424	
428.200	-33.437	
428.300	-31.828	
428.400	-12.695	
428.500	-31.853	
428.600	-44.049	
428.700	-30.642	
428.800	-16.041	
428.900	-29.504	
429.000	-29.454	
429.100	-28.236	
429.200	-31.240	
429.300	-15.244	
429.400	-14.871	
429.500	-37.901	
429.600	-36.456	
429.700	-24.376	
429.800	-23.075	
429.900	-31.968	
430.000	-25.012	
430.100	-21.165	
430.200	-36.805	
430.300	-27.421	
430.400	-26.686	
430.500	-23.676	
430.600	-16.674	
430.700	-31.848	
430.800	-23.144	
430.900	-28.054	
431.000	-23.823	
431.100	-32.527	
431.200	-18.437	
431.300	-15.724	
431.400	-19.749	
431.500	-14.155	
431.600	-20.447	
431.700	-36.923	
431.800	-28.657	
431.900	-28.548	
432.000	-29.879	
432.100	-17.444	
432.200	-33.780	
432.300	-29.015	
432.400	-26.094	
432.500	-25.030	
432.600	-32.507	
432.700	-34.628	
432.800	-25.967	
432.900	-28.298	
433.000	-39.085	
433.100	-17.485	
433.200	-17.359	
433.300	-29.935	
433.400	-31.381	
433.500	-31.353	
433.600	-25.971	
433.700	-37.076	
433.800	-13.119	
433.900	-25.784	
434.000	-16.142	
434.100	-35.529	
434.200	-19.804	
434.300	-17.810	
434.400	-32.228	
434.500	-40.995	
434.600	-28.608	
434.700	-13.368	
434.800	-45.137	
434.900	-27.794	
435.000	-27.632	
435.100	-19.800	
435.200	-34.447	
435.300	-23.231	
435.400	-24.762	
435.500	-28.166	
435.600	-36.813	
435.700	-30.569	
435.800	-18.511	
435.900	-12.225	
436.000	-22.746	
436.100	-9.842	
436.200	-29.399	
436.300	-32.159	
436.400	-18.432	
436.500	-33.764	
436.600	-15.894	
436.700	-18.818	
436.800	-42.590	
436.900	-33.760	
437.000	-39.264	
437.100	-16.392	
437.200	-41.186	
437.300	-21.291	
437.400	-34.569	
437.500	-20.380	
437.600	-14.705	
437.700	-10.696	
437.800	-33.185	
437.900	-17.888	
438.000	-32.151	
438.100	-36.486	
438.200	-27.779	
438.300	-15.000	
438.400	-10.901	
438.500	-25.286	
438.600	-33.438	
438.700	-22.484	
438.800	-23.665	
438.900	-23.062	
439.000	-18.495	
439.100	-21.245	
439.200	-27.003	
439.300	-18.163	
439.400	-25.876	
439.500	-24.593	
439.600	-25.019	
439.700	-15.773	
439.800	-25.385	
439.900	-19.597	
440.000	-32.759	
440.100	-35.655	
440.200	-20.084	
440.300	-22.217	
440.400	-16.146	
440.500	-20.975	
440.600	-37.030	
440.700	-22.022	
440.800	-28.045	
440.900	-33.656	
441.000	-23.970	
441.100	-22.393	
441.200	-14.247	
441.300	-11.670	
441.400	-26.314	
441.500	-20.364	
441.600	-20.659	
441.700	-34.097	
441.800	-14.650	
441.900	-35.172	
442.000	-28.502	
442.100	-25.532	
442.200	-20.319	
442.300	-33.826	
442.400	-9.398	
442.500	-12.717	
442.600	-27.604	
442.700	-35.743	
442.800	-30.717	
442.900	-18.982	
443.000	-35.786	
443.100	-28.448	
443.200	-28.182	
443.300	-12.151	
443.400	-31.217	
443.500	-30.775	
443.600	-25.844	
443.700	-14.537	
443.800	-20.013	
443.900	-34.298	
444.000	-12.680	
444.100	-24.186	
444.200	-32.710	
444.300	-41.184	
444.400	-18.773	
444.500	-23.893	
444.600	-13.786	
444.700	-18.660	
444.800	-17.657	
444.900	-28.769	
445.000	-28.478	
445.100	-25.640	
445.200	-27.211	
445.300	-38.857	
445.400	-21.558	
445.500	-22.305	
445.600	-32.755	
445.700	-24.415	
445.800	-31.228	
445.900	-30.939	
446.000	-11.643	
446.100	-29.882	
446.200	-27.643	
446.300	-27.934	
446.400	-21.636	
446.500	-22.871	
446.600	-22.124	
446.700	-27.454	
446.800	-21.426	
446.900	-33.558	
447.000	-19.575	
447.100	-15.591	
447.200	-35.589	
447.300	-18.660	
447.400	-13.424	
447.500	-21.448	
447.600	-22.904	
447.700	-1.368	
447.800	-26.179	
447.900	-5.759	
448.000	-23.339	
448.100	-18.715	
448.200	-19.090	
448.300	-34.300	
448.400	-22.286	
448.500	-17.709	
448.600	-21.199	
448.700	-37.177	
448.800	-20.633	
448.900	-19.635	
449.000	-15.015	
449.100	-28.157	
449.200	-16.861	
449.300	-4.393	
449.400	-13.596	
449.500	-22.287	
449.600	-21.651	
449.700	-15.343	
449.800	-13.308	
449.900	-32.519	
450.000	-25.550	
450.100	-22.073	
450.200	-11.762	
450.300	-26.397	
450.400	-30.923	
450.500	-3.233	
450.600	-12.998	
450.700	-15.384	
450.800	-31.018	
450.900	-20.235	
451.000	-13.505	
451.100	-44.369	
451.200	-17.233	
451.300	-19.608	
451.400	-20.260	
451.500	-26.257	
451.600	-17.996	
451.700	-42.491	
451.800	-22.385	
451.900	-20.219	
452.000	-17.938	
452.100	-22.186	
452.200	-14.949	
452.300	-26.757	
452.400	-24.016	
452.500	-20.971	
452.600	-5.287	
452.700	-23.787	
452.800	-24.660	
452.900	-19.101	
453.000	-9.395	
453.100	-26.234	
453.200	-16.595	
453.300	-5.857	
453.400	-36.660	
453.500	-29.336	
453.600	-22.441	
453.700	-21.268	
453.800	-10.621	
453.900	-18.990	
454.000	-16.819	
454.100	-9.659	
454.200	-14.808	
454.300	-21.022	
454.400	-14.270	
454.500	-29.011	
454.600	-20.942	
454.700	-30.600	
454.800	-12.605	
454.900	-22.721	
455.000	-25.461	
455.100	-11.097	
455.200	-19.092	
455.300	-23.607	
455.400	-19.866	
455.500	-13.007	
455.600	-12.057	
455.700	-2.594	
455.800	-20.683	
455.900	-32.630	
456.000	-14.853	
456.100	-30.676	
456.200	-19.594	
456.300	-10.527	
456.400	-28.345	
456.500	-9.659	
456.600	-23.453	
456.700	-25.490	
456.800	-9.365	
456.900	-12.023	
457.000	-7.819	
457.100	-22.120	
457.200	-9.726	
457.300	-21.730	
457.400	-17.815	
457.500	-16.998	
457.600	-13.805	
457.700	-18.356	
457.800	-15.924	
457.900	-28.947	
458.000	-24.496	
458.100	-27.478	
458.200	-24.814	
458.300	-11.986	
458.400	-28.741	
458.500	-3.780	
458.600	-25.669	
458.700	-21.952	
458.800	-23.172	
458.900	-22.110	
459.000	-2.360	
459.100	-22.373	
459.200	-4.725	
459.300	-39.743	
459.400	-32.667	
459.500	-14.923	
459.600	-21.915	
459.700	-22.651	
459.800	-6.705	
459.900	-17.495	
460.000	-9.165	
460.100	-16.502	
460.200	-25.264	
460.300	-24.876	
460.400	-8.643	
460.500	-17.134	
460.600	-15.436	
460.700	-19.897	
460.800	-29.277	
460.900	-38.621	
461.000	-23.275	
461.100	9.299	
461.200	-8.423	
461.300	-19.614	
461.400	-18.211	
461.500	-27.397	
461.600	0.814	
461.700	-21.146	
461.800	-30.870	
461.900	-24.553	
462.000	-1.780	
462.100	-19.219	
462.200	-10.857	
462.300	-21.453	
462.400	-14.234	
462.500	-16.534	
462.600	-17.095	
462.700	-15.616	
462.800	-14.461	
462.900	-11.972	
463.000	-14.338	
463.100	-21.904	
463.200	-16.585	
463.300	-19.886	
463.400	-15.709	
463.500	-12.399	
463.600	-14.758	
463.700	-14.969	
463.800	-5.667	
463.900	-14.263	
464.000	-26.556	
464.100	-22.739	
464.200	-12.806	
464.300	-21.321	
464.400	-12.119	
464.500	-37.404	
464.600	-22.491	
464.700	-18.606	
464.800	-23.350	
464.900	-6.890	
465.000	-11.523	
465.100	-25.228	
465.200	-14.537	
465.300	-13.875	
465.400	-19.637	
465.500	-9.029	
465.600	-27.730	
465.700	-21.009	
465.800	-24.330	
465.900	-19.399	
466.000	-14.431	
466.100	3.426	
466.200	-14.333	
466.300	-19.785	
466.400	-23.980	
466.500	-33.013	
466.600	-13.580	
466.700	-17.218	
466.800	-18.871	
466.900	-16.150	
467.000	-15.647	
467.100	-24.826	
467.200	-24.802	
467.300	-8.222	
467.400	-20.122	
467.500	-19.496	
467.600	-12.378	
467.700	-16.433	
467.800	-24.866	
467.900	-5.691	
468.000	-16.197	
468.100	-14.079	
468.200	-10.176	
468.300	-23.645	
468.400	-21.103	
468.500	-9.994	
468.600	-33.356	
468.700	-22.877	
468.800	-18.925	
468.900	-19.481	
469.000	-27.011	
469.100	-2.169	
469.200	-23.150	
469.300	-12.899	
469.400	-21.576	
469.500	-11.359	
469.600	-20.311	
469.700	-19.040	
469.800	-16.167	
469.900	-29.150	
470.000	-31.932	
470.100	-21.169	
470.200	-22.097	
470.300	-4.915	
470.400	-18.653	
470.500	-8.704	
470.600	-36.229	
470.700	-8.016	
470.800	-8.322	
470.900	-33.849	
471.000	-35.328	
471.100	-0.957	
471.200	-14.017	
471.300	-7.650	
471.400	-13.157	
471.500	-8.060	
471.600	-10.935	
471.700	-20.726	
471.800	-18.494	
471.900	-19.105	
472.000	-24.951	
472.100	-16.835	
472.200	-20.265	
472.300	-25.675	
472.400	-18.008	
472.500	-8.985	
472.600	-34.877	
472.700	-24.187	
472.800	0.064	
472.900	-16.520	
473.000	-19.691	
473.100	-13.412	
473.200	-13.869	
473.300	-18.041	
473.400	-15.938	
473.500	-20.655	
473.600	-7.058	
473.700	-22.207	
473.800	-16.698	
473.900	-17.448	
474.000	-20.948	
474.100	-11.411	
474.200	-18.287	
474.300	-11.687	
474.400	-15.379	
474.500	-5.514	
474.600	-15.063	
474.700	-19.446	
474.800	-17.956	
474.900	-22.167	
475.000	7.050	
475.100	-19.391	
475.200	-16.453	
475.300	-15.400	
475.400	-23.005	
475.500	-9.738	
475.600	-19.036	
475.700	-8.841	
475.800	-9.037	
475.900	-20.580	
476.000	-7.280	
476.100	-21.669	
476.200	-17.606	
476.300	-15.272	
476.400	-8.980	
476.500	-9.971	
476.600	-17.045	
476.700	-23.043	
476.800	-8.369	
476.900	-20.575	
477.000	-13.892	
477.100	-12.024	
477.200	-22.435	
477.300	-5.077	
477.400	-18.989	
477.500	-26.544	
477.600	-28.176	
477.700	-14.057	
477.800	-18.858	
477.900	-13.860	
478.000	1.104	
478.100	-11.394	
478.200	-16.371	
478.300	-27.638	
478.400	0.480	
478.500	-10.459	
478.600	2.087	
478.700	-25.620	
478.800	-11.609	
478.900	-14.960	
479.000	-8.190	
479.100	-10.592	
479.200	-33.786	
479.300	6.305	
479.400	-20.349	
479.500	4.068	
479.600	2.602	
479.700	-11.793	
479.800	-16.168	
479.900	4.835	
480.000	-9.330	
480.100	-8.576	
480.200	-4.253	
480.300	5.307	
480.400	4.693	
480.500	16.787	
480.600	7.554	
480.700	5.647	
480.800	12.094	
480.900	11.631	
481.000	10.068	
481.100	-2.385	
481.200	38.127	
481.300	30.459	
481.400	12.234	
481.500	36.173	
481.600	32.661	
481.700	33.814	
481.800	25.366	
481.900	28.047	
482.000	-0.992	
482.100	39.716	
482.200	33.014	
482.300	6.744	
482.400	22.757	
482.500	26.098	
482.600	34.324	
482.700	21.232	
482.800	27.492	
482.900	29.753	
483.000	23.463	
483.100	30.714	
483.200	20.718	
483.300	25.576	
483.400	25.171	
483.500	33.225	
483.600	27.622	
483.700	19.840	
483.800	28.921	
483.900	4.966	
484.000	33.425	
484.100	17.009	
484.200	30.774	
484.300	18.546	
484.400	20.049	
484.500	8.127	
484.600	13.476	
484.700	17.383	
484.800	32.838	
484.900	22.164	
485.000	13.400	
485.100	26.810	
485.200	29.748	
485.300	17.016	
485.400	20.932	
485.500	22.763	
485.600	14.364	
485.700	24.331	
485.800	17.881	
485.900	29.256	
486.000	29.751	
486.100	16.415	
486.200	28.732	
486.300	16.925	
486.400	13.954	
486.500	17.092	
486.600	19.784	
486.700	21.646	
486.800	28.362	
486.900	22.648	
487.000	5.629	
487.100	30.587	
487.200	15.678	
487.300	19.954	
487.400	30.262	
487.500	25.226	
487.600	22.363	
487.700	21.044	
487.800	28.324	
487.900	18.788	
488.000	14.927	
488.100	24.854	
488.200	22.720	
488.300	30.961	
488.400	12.851	
488.500	19.160	
488.600	17.555	
488.700	23.008	
488.800	22.510	
488.900	25.844	
489.000	18.629	
489.100	30.523	
489.200	30.580	
489.300	29.432	
489.400	17.213	
489.500	32.940	
489.600	20.710	
489.700	16.728	
489.800	31.653	
489.900	29.926	
490.000	31.032	
490.100	14.547	
490.200	30.679	
490.300	33.174	
490.400	37.758	
490.500	25.429	
490.600	43.358	
490.700	13.305	
490.800	52.957	
490.900	40.364	
491.000	39.686	
491.100	31.640	
491.200	35.322	
491.300	37.934	
491.400	28.568	
491.500	38.727	
491.600	47.116	
491.700	44.039	
491.800	33.800	
491.900	41.753	
492.000	47.299	
492.100	39.210	
492.200	32.992	
492.300	49.582	
492.400	54.339	
492.500	41.849	
492.600	37.665	
492.700	41.816	
492.800	33.615	
492.900	43.157	
493.000	40.453	
493.100	42.455	
493.200	48.704	
493.300	31.447	
493.400	47.741	
493.500	30.956	
493.600	48.123	
493.700	40.482	
493.800	42.363	
493.900	35.865	
494.000	49.990	
494.100	44.822	
494.200	60.109	
494.300	44.844	
494.400	35.103	
494.500	61.284	
494.600	36.303	
494.700	47.276	
494.800	48.480	
494.900	62.799	
495.000	34.821	
495.100	35.002	
495.200	60.619	
495.300	50.668	
495.400	44.229	
495.500	54.795	
495.600	49.099	
495.700	46.830	
495.800	52.156	
495.900	48.568	
496.000	49.074	
496.100	67.128	
496.200	44.133	
496.300	63.837	
496.400	57.982	
496.500	52.462	
496.600	51.410	
496.700	60.142	
496.800	44.602	
496.900	41.475	
497.000	52.294	
497.100	49.553	
497.200	52.325	
497.300	55.879	
497.400	40.186	
497.500	52.696	
497.600	47.335	
497.700	45.607	
497.800	55.799	
497.900	52.481	
498.000	54.539	
498.100	62.237	
498.200	57.043	
498.300	53.975	
498.400	45.891	
498.500	53.039	
498.600	48.195	
498.700	57.432	
498.800	54.595	
498.900	39.590	
499.000	56.063	
499.100	56.270	
499.200	41.307	
499.300	50.861	
499.400	55.044	
499.500	63.281	
499.600	62.175	
499.700	46.108	
499.800	45.664	
499.900	47.395	
500.000	53.996	
500.100	55.859	
500.200	56.879	
500.300	33.107	
500.400	55.462	
500.500	40.227	
500.600	54.778	
500.700	62.936	
500.800	51.390	
500.900	49.105	
501.000	49.792	
501.100	55.890	
501.200	65.991	
501.300	51.425	
501.400	42.238	
501.500	66.292	
501.600	43.503	
501.700	59.730	
501.800	44.809	
501.900	52.709	
502.000	51.199	
502.100	56.855	
502.200	47.365	
502.300	50.359	
502.400	40.983	
502.500	73.834	
502.600	58.456	
502.700	48.073	
502.800	63.580	
502.900	36.520	
503.000	67.887	
503.100	58.245	
503.200	56.671	
503.300	58.934	
503.400	53.869	
503.500	47.384	
503.600	46.606	
503.700	60.599	
503.800	44.694	
503.900	50.674	
504.000	45.088	
504.100	61.578	
504.200	35.927	
504.300	58.534	
504.400	53.161	
504.500	54.296	
504.600	50.004	
504.700	57.287	
504.800	60.648	
504.900	53.746	
505.000	58.374	
505.100	68.826	
505.200	49.058	
505.300	56.198	
505.400	54.137	
505.500	46.699	
505.600	61.115	
505.700	51.886	
505.800	52.080	
505.900	50.711	
506.000	59.988	
506.100	57.237	
506.200	50.740	
506.300	38.494	
506.400	39.520	
506.500	67.460	
506.600	51.289	
506.700	61.993	
506.800	39.517	
506.900	42.532	
507.000	73.258	
507.100	45.794	
507.200	48.505	
507.300	62.928	
507.400	45.489	
507.500	49.313	
507.600	49.682	
507.700	54.283	
507.800	56.575	
507.900	64.728	
508.000	51.224	
508.100	59.718	
508.200	59.148	
508.300	47.813	
508.400	47.901	
508.500	49.192	
508.600	59.672	
508.700	50.767	
508.800	58.873	
508.900	51.031	
509.000	67.146	
509.100	57.248	
509.200	51.503	
509.300	47.951	
509.400	61.619	
509.500	58.406	
509.600	57.511	
509.700	51.807	
509.800	50.048	
509.900	56.860	
510.000	55.585	
510.100	54.524	
510.200	42.990	
510.300	52.578	
510.400	53.245	
510.500	52.294	
510.600	46.292	
510.700	61.620	
510.800	49.524	
510.900	55.747	
511.000	76.021	
511.100	46.993	
511.200	40.622	
511.300	45.305	
511.400	51.282	
511.500	54.383	
511.600	54.509	
511.700	54.758	
511.800	68.337	
511.900	50.754	
512.000	47.069	
512.100	44.730	
512.200	56.009	
512.300	57.003	
512.400	42.838	
512.500	44.121	
512.600	51.829	
512.700	52.841	
512.800	65.298	
512.900	42.601	
513.000	65.489	
513.100	67.170	
513.200	53.921	
513.300	37.132	
513.400	50.345	
513.500	47.483	
513.600	58.301	
513.700	61.116	
513.800	66.743	
513.900	52.210	
514.000	54.316	
514.100	45.753	
514.200	53.268	
514.300	73.427	
514.400	47.169	
514.500	49.715	
514.600	55.011	
514.700	61.785	
514.800	43.873	
514.900	47.378	
515.000	53.711	
515.100	58.814	
515.200	53.880	
515.300	71.907	
515.400	55.502	
515.500	49.674	
515.600	38.171	
515.700	41.478	
515.800	37.868	
515.900	60.479	
516.000	53.923	
516.100	55.050	
516.200	37.950	
516.300	48.969	
516.400	55.305	
516.500	70.884	
516.600	44.215	
516.700	49.661	
516.800	61.027	
516.900	24.738	
517.000	46.222	
517.100	53.165	
517.200	41.400	
517.300	48.750	
517.400	65.764	
517.500	38.735	
517.600	64.307	
517.700	49.368	
517.800	48.315	
517.900	43.113	
518.000	38.607	
518.100	48.064	
518.200	54.960	
518.300	59.078	
518.400	49.594	
518.500	49.342	
518.600	32.481	
518.700	50.774	
518.800	63.373	
518.900	40.198	
519.000	50.297	
519.100	55.330	
519.200	57.255	
519.300	44.936	
519.400	57.098	
519.500	53.826	
519.600	47.314	
519.700	33.486	
519.800	50.335	
519.900	55.726	
520.000	56.820	
520.100	48.295	
520.200	58.363	
520.300	52.184	
520.400	55.123	
520.500	41.459	
520.600	40.324	
520.700	53.248	
520.800	59.217	
520.900	47.213	
521.000	54.954	
521.100	39.725	
521.200	61.365	
521.300	57.830	
521.400	40.995	
521.500	47.498	
521.600	52.441	
521.700	43.950	
521.800	39.564	
521.900	46.241	
522.000	50.414	
522.100	60.498	
522.200	62.626	
522.300	47.349	
522.400	41.712	
522.500	63.067	
522.600	36.227	
522.700	56.454	
522.800	40.532	
522.900	44.912	
523.000	48.527	
523.100	34.559	
523.200	54.089	
523.300	54.642	
523.400	51.393	
523.500	61.322	
523.600	32.382	
523.700	32.670	
523.800	50.529	
523.900	49.498	
524.000	63.015	
524.100	41.056	
524.200	46.650	
524.300	47.394	
524.400	55.806	
524.500	62.125	
524.600	51.816	
524.700	53.403	
524.800	42.028	
524.900	53.673	
525.000	46.753	
525.100	46.436	
525.200	51.434	
525.300	39.301	
525.400	53.401	
525.500	54.082	
525.600	37.932	
525.700	48.294	
525.800	47.612	
525.900	44.460	
526.000	41.289	
526.100	48.305	
526.200	47.795	
526.300	60.484	
526.400	35.359	
526.500	55.458	
526.600	42.510	
526.700	50.533	
526.800	50.396	
526.900	48.884	
527.000	49.830	
527.100	51.074	
527.200	44.283	
527.300	48.445	
527.400	44.959	
527.500	54.254	
527.600	43.412	
527.700	61.833	
527.800	48.801	
527.900	44.985	
528.000	44.767	
528.100	40.631	
528.200	39.835	
528.300	54.551	
528.400	43.152	
528.500	44.841	
528.600	45.601	
528.700	41.414	
528.800	58.029	
528.900	43.836	
529.000	49.469	
529.100	33.179	
529.200	47.515	
529.300	39.744	
529.400	52.090	
529.500	46.083	
529.600	46.235	
529.700	53.560	
529.800	61.879	
529.900	51.388	
530.000	35.978	
530.100	52.728	
530.200	44.076	
530.300	37.459	
530.400	49.141	
530.500	47.716	
530.600	51.746	
530.700	40.476	
530.800	46.813	
530.900	57.136	
531.000	35.630	
531.100	55.917	
531.200	50.682	
531.300	39.884	
531.400	33.982	
531.500	44.049	
531.600	40.137	
531.700	32.595	
531.800	61.894	
531.900	37.777	
532.000	55.614	
532.100	37.799	
532.200	35.782	
532.300	54.460	
532.400	40.964	
532.500	45.622	
532.600	59.181	
532.700	57.195	
532.800	38.600	
532.900	36.421	
533.000	49.700	
533.100	59.919	
533.200	46.678	
533.300	28.995	
533.400	46.196	
533.500	54.871	
533.600	43.693	
533.700	62.843	
533.800	33.717	
533.900	44.970	
534.000	32.211	
534.100	64.943	
534.200	38.907	
534.300	34.686	
534.400	30.548	
534.500	39.540	
534.600	57.675	
534.700	48.444	
534.800	36.991	
534.900	53.575	
535.000	43.530	
535.100	48.311	
535.200	40.187	
535.300	51.439	
535.400	45.645	
535.500	43.999	
535.600	42.228	
535.700	24.762	
535.800	52.338	
535.900	42.656	
536.000	52.102	
536.100	42.585	
536.200	50.047	
536.300	40.792	
536.400	32.946	
536.500	46.720	
536.600	32.184	
536.700	40.654	
536.800	56.046	
536.900	36.532	
537.000	64.671	
537.100	46.128	
537.200	40.222	
537.300	51.528	
537.400	48.290	
537.500	29.084	
537.600	43.096	
537.700	55.659	
537.800	59.662	
537.900	36.456	
538.000	39.560	
538.100	51.721	
538.200	53.746	
538.300	47.257	
538.400	15.867	
538.500	49.112	
538.600	45.162	
538.700	47.320	
538.800	43.807	
538.900	44.401	
539.000	38.697	
539.100	48.363	
539.200	39.006	
539.300	57.920	
539.400	38.312	
539.500	54.092	
539.600	45.844	
539.700	44.090	
539.800	48.494	
539.900	40.158	
540.000	44.698	
540.100	38.503	
540.200	34.760	
540.300	29.509	
540.400	33.242	
540.500	16.976	
540.600	28.783	
540.700	14.553	
540.800	33.907	
540.900	35.010	
541.000	23.835	
541.100	31.542	
541.200	13.618	
541.300	30.369	
541.400	11.389	
541.500	11.461	
541.600	20.073	
541.700	14.852	
541.800	16.858	
541.900	14.173	
542.000	4.656	
542.100	19.683	
542.200	13.267	
542.300	26.288	
542.400	4.310	
542.500	22.031	
542.600	12.281	
542.700	4.506	
542.800	12.284	
542.900	15.275	
543.000	13.340	
543.100	9.510	
543.200	9.739	
543.300	7.598	
543.400	4.044	
543.500	5.541	
543.600	-12.261	
543.700	7.299	
543.800	-4.427	
543.900	-0.431	
544.000	-6.013	
544.100	7.571	
544.200	-5.664	
544.300	-13.334	
544.400	12.910	
544.500	-23.355	
544.600	-26.349	
544.700	4.558	
544.800	-22.365	
544.900	-18.889	
545.000	-20.673	
545.100	6.795	
545.200	-14.620	
545.300	-16.982	
545.400	-19.750	
545.500	-21.244	
545.600	-19.151	
545.700	-22.380	
545.800	-17.297	
545.900	-15.390	
546.000	-34.714	
546.100	-15.474	
546.200	-31.473	
546.300	-14.329	
546.400	-12.566	
546.500	-20.793	
546.600	-18.469	
546.700	-20.759	
546.800	-20.344	
546.900	-25.622	
547.000	-18.922	
547.100	-24.043	
547.200	-22.218	
547.300	-2.700	
547.400	-18.182	
547.500	-15.438	
547.600	-17.939	
547.700	-19.848	
547.800	-24.695	
547.900	-13.182	
548.000	-14.272	
548.100	-16.423	
548.200	-22.226	
548.300	-38.819	
548.400	-11.359	
548.500	-12.758	
548.600	-18.859	
548.700	-2.874	
548.800	-23.531	
548.900	-26.352	
549.000	-15.930	
549.100	6.356	
549.200	-18.206	
549.300	-15.388	
549.400	-16.073	
549.500	-18.372	
549.600	-19.063	
549.700	5.608	
549.800	-30.952	
549.900	-7.328	
550.000	-11.778	
550.100	-15.243	
550.200	-15.736	
550.300	-17.664	
550.400	-15.594	
550.500	1.253	
550.600	-19.813	
550.700	-19.447	
550.800	-26.210	
550.900	-22.681	
551.000	-20.586	
551.100	-8.491	
551.200	-11.216	
551.300	-17.052	
551.400	-38.703	
551.500	-35.783	
551.600	-4.094	
551.700	-13.150	
551.800	-32.288	
551.900	-4.044	
552.000	-14.663	
552.100	-12.825	
552.200	-11.568	
552.300	-11.387	
552.400	-9.172	
552.500	-9.008	
552.600	-21.856	
552.700	-12.916	
552.800	-32.265	
552.900	-20.138	
553.000	-17.113	
553.100	-11.157	
553.200	-31.606	
553.300	-24.339	
553.400	-15.480	
553.500	-32.920	
553.600	-18.631	
553.700	-10.251	
553.800	-19.168	
553.900	-13.315	
554.000	-13.522	
554.100	-33.891	
554.200	-5.261	
554.300	-15.572	
554.400	-10.952	
554.500	-14.650	
554.600	-11.714	
554.700	-23.414	
554.800	-10.574	
554.900	-23.703	
555.000	-5.331	
555.100	-17.115	
555.200	-0.805	
555.300	-19.166	
555.400	-24.870	
555.500	-6.280	
555.600	-20.144	
555.700	-18.129	
555.800	-16.246	
555.900	-6.819	
556.000	-14.115	
556.100	-17.039	
556.200	-19.324	
556.300	-13.839	
556.400	-18.257	
556.500	-18.478	
556.600	-24.708	
556.700	-13.937	
556.800	-24.001	
556.900	-5.851	
557.000	-9.912	
557.100	-21.453	
557.200	-21.116	
557.300	-17.579	
557.400	-26.768	
557.500	-9.771	
557.600	-21.666	
557.700	-15.692	
557.800	-12.846	
557.900	-11.410	
558.000	-27.872	
558.100	-27.467	
558.200	-22.451	
558.300	-18.921	
558.400	-34.033	
558.500	-8.943	
558.600	-34.589	
558.700	-18.828	
558.800	-4.303	
558.900	-12.964	
559.000	-11.358	
559.100	-9.513	
559.200	-11.947	
559.300	-11.166	
559.400	-23.008	
559.500	-25.441	
559.600	-29.837	
559.700	-22.358	
559.800	-14.372	
559.900	-24.257	
560.000	-6.407	
560.100	-33.807	
560.200	-19.533	
560.300	-12.921	
560.400	-12.394	
560.500	-15.933	
560.600	-16.749	
560.700	-19.421	
560.800	-23.369	
560.900	-25.137	
561.000	-20.712	
561.100	-8.612	
561.200	-16.695	
561.300	-36.749	
561.400	-22.304	
561.500	-22.210	
561.600	-18.057	
561.700	-24.959	
561.800	-26.896	
561.900	-22.050	
562.000	-17.099	
562.100	-24.859	
562.200	-37.154	
562.300	-14.605	
562.400	-21.699	
562.500	-16.189	
562.600	-24.874	
562.700	-19.537	
562.800	-31.005	
562.900	-30.925	
563.000	-15.018	
563.100	-21.599	
563.200	-26.627	
563.300	-22.697	
563.400	-27.742	
563.500	-16.553	
563.600	-19.667	
563.700	-19.376	
563.800	-13.151	
563.900	-26.003	
564.000	-37.894	
564.100	-18.090	
564.200	-33.260	
564.300	-6.381	
564.400	-15.967	
564.500	-22.254	
564.600	-18.367	
564.700	-25.848	
564.800	-21.524	
564.900	-27.860	
565.000	-13.941	
565.100	-26.509	
565.200	-20.316	
565.300	-24.088	
565.400	-20.409	
565.500	-12.769	
565.600	-12.031	
565.700	-18.664	
565.800	-14.975	
565.900	-38.241	
566.000	-20.016	
566.100	-15.115	
566.200	-14.265	
566.300	-38.891	
566.400	-15.033	
566.500	-18.051	
566.600	-17.587	
566.700	-20.924	
566.800	-17.524	
566.900	-25.929	
567.000	-44.699	
567.100	-16.037	
567.200	-27.932	
567.300	-29.285	
567.400	-16.486	
567.500	-36.021	
567.600	-53.256	
567.700	-23.938	
567.800	-19.476	
567.900	-52.836	
568.000	-24.021	
568.100	-3.573	
568.200	-18.147	
568.300	-5.611	
568.400	-37.579	
568.500	-21.589	
568.600	-24.967	
568.700	-27.432	
568.800	-31.539	
568.900	-36.850	
569.000	-18.675	
569.100	-15.500	
569.200	-26.715	
569.300	-21.012	
569.400	-34.310	
569.500	-20.759	
569.600	-36.198	
569.700	-10.510	
569.800	-22.295	
569.900	-24.849	
570.000	-33.323	
570.100	-29.396	
570.200	-26.792	
570.300	-36.837	
570.400	-26.826	
570.500	-21.419	
570.600	-34.069	
570.700	-20.027	
570.800	-15.643	
570.900	-25.598	
571.000	-32.782	
571.100	-26.441	
571.200	-31.497	
571.300	-20.087	
571.400	-24.833	
571.500	-43.382	
571.600	-16.110	
571.700	-23.543	
571.800	-38.622	
571.900	-25.040	
572.000	-28.680	
572.100	-23.375	
572.200	-30.759	
572.300	-29.810	
572.400	-27.890	
572.500	-29.331	
572.600	-39.692	
572.700	-31.429	
572.800	-7.351	
572.900	-26.924	
573.000	-29.250	
573.100	-19.063	
573.200	-25.950	
573.300	-41.390	
573.400	-23.133	
573.500	-29.332	
573.600	-21.717	
573.700	-28.891	
573.800	-36.614	
573.900	-25.750	
574.000	-35.724	
574.100	-13.125	
574.200	-28.461	
574.300	-31.887	
574.400	-35.035	
574.500	-31.101	
574.600	-14.556	
574.700	-24.421	
574.800	-34.500	
574.900	-26.682	
575.000	-30.955	
575.100	-41.489	
575.200	-23.822	
575.300	-32.205	
575.400	-16.814	
575.500	-19.765	
575.600	-23.684	
575.700	-35.906	
575.800	-22.086	
575.900	-29.625	
576.000	-34.023	
576.100	-18.816	
576.200	-29.790	
576.300	-38.775	
576.400	-22.221	
576.500	-39.814	
576.600	-23.835	
576.700	-32.243	
576.800	-16.230	
576.900	-43.839	
577.000	-17.760	
577.100	-15.215	
577.200	-26.881	
577.300	-26.101	
577.400	-20.736	
577.500	-40.385	
577.600	-41.875	
577.700	-24.536	
577.800	-29.612	
577.900	-39.331	
578.000	-26.847	
578.100	-31.439	
578.200	-11.441	
578.300	-28.868	
578.400	-24.314	
578.500	-40.979	
578.600	-30.696	
578.700	-28.785	
578.800	-25.248	
578.900	-32.635	
579.000	-33.869	
579.100	-32.304	
579.200	-24.321	
579.300	-8.126	
579.400	-27.813	
579.500	-18.612	
579.600	-38.700	
579.700	-29.415	
579.800	-20.114	
579.900	-30.925	
580.000	-15.726	
580.100	-29.086	
580.200	-34.601	
580.300	-33.301	
580.400	-28.249	
580.500	-17.181	
580.600	-17.315	
580.700	-37.345	
580.800	-33.781	
580.900	-22.642	
581.000	-13.102	
581.100	-32.430	
581.200	-38.813	
581.300	-14.642	
581.400	-33.077	
581.500	-25.642	
581.600	-19.172	
581.700	-27.843	
581.800	-22.291	
581.900	-33.860	
582.000	-38.786	
582.100	-30.596	
582.200	-23.241	
582.300	-10.907	
582.400	-27.350	
582.500	-39.211	
582.600	-28.694	
582.700	-21.479	
582.800	-18.387	
582.900	-24.041	
583.000	-23.148	
583.100	-22.944	
583.200	-32.914	
583.300	-16.768	
583.400	-38.507	
583.500	-18.518	
583.600	-17.154	
583.700	-36.377	
583.800	-17.188	
583.900	-25.660	
584.000	-19.322	
584.100	-30.522	
584.200	-34.966	
584.300	-33.650	
584.400	-34.147	
584.500	-25.364	
584.600	-32.031	
584.700	-34.719	
584.800	-18.780	
584.900	-36.836	
585.000	-32.073	
585.100	-32.697	
585.200	-25.250	
585.300	-31.634	
585.400	-19.573	
585.500	-36.026	
585.600	-15.407	
585.700	-21.717	
585.800	-26.065	
585.900	-34.296	
586.000	-22.060	
586.100	-29.232	
586.200	-30.684	
586.300	-29.219	
586.400	-22.372	
586.500	-20.758	
586.600	-20.682	
586.700	-28.156	
586.800	-18.028	
586.900	-26.094	
587.000	-39.573	
587.100	-18.110	
587.200	-20.016	
587.300	-32.375	
587.400	-34.217	
587.500	-18.127	
587.600	-23.542	
587.700	-11.487	
587.800	-15.874	
587.900	-26.931	
588.000	-23.104	
588.100	-17.139	
588.200	-34.301	
588.300	-16.288	
588.400	-14.050	
588.500	-26.596	
588.600	-32.284	
588.700	-22.854	
588.800	-10.376	
588.900	-25.298	
589.000	-29.195	
589.100	-29.219	
589.200	-29.810	
589.300	-24.980	
589.400	-23.660	
589.500	-26.098	
589.600	-22.055	
589.700	-25.964	
589.800	-15.798	
589.900	-17.733	
590.000	-26.548	
590.100	-19.252	
590.200	-26.293	
590.300	-24.341	
590.400	-28.372	
590.500	-18.645	
590.600	-26.642	
590.700	-13.634	
590.800	-14.817	
590.900	-17.068	
591.000	-48.219	
591.100	-16.197	
591.200	-29.047	
591.300	-26.718	
591.400	-22.111	
591.500	-25.850	
591.600	-22.399	
591.700	-26.417	
591.800	-27.092	
591.900	-26.177	
592.000	-12.699	
592.100	-20.533	
592.200	-30.852	
592.300	-28.443	
592.400	-24.752	
592.500	-22.329	
592.600	-28.996	
592.700	-15.214	
592.800	-8.589	
592.900	-24.507	
593.000	-35.650	
593.100	-18.712	
593.200	-14.448	
593.300	-15.447	
593.400	-36.207	
593.500	-27.741	
593.600	-20.155	
593.700	-28.109	
593.800	-20.399	
593.900	-25.792	
594.000	-29.582	
594.100	-17.541	
594.200	-18.117	
594.300	-16.489	
594.400	-28.552	
594.500	-14.316	
594.600	-18.067	
594.700	-38.624	
594.800	-19.123	
594.900	-16.277	
595.000	-17.762	
595.100	-21.486	
595.200	-20.414	
595.300	-41.253	
595.400	-26.567	
595.500	-18.918	
595.600	-28.986	
595.700	-19.530	
595.800	-25.953	
595.900	-14.367	
596.000	-12.372	
596.100	-10.887	
596.200	-28.760	
596.300	-36.413	
596.400	-18.900	
596.500	-19.803	
596.600	-20.245	
596.700	-26.346	
596.800	-5.181	
596.900	-32.193	
597.000	-16.357	
597.100	-19.005	
597.200	-15.263	
597.300	-24.097	
597.400	-19.562	
597.500	-9.719	
597.600	-13.432	
597.700	-18.282	
597.800	-16.676	
597.900	-27.932	
598.000	-13.988	
598.100	-49.216	
598.200	-18.312	
598.300	-18.788	
598.400	-17.779	
598.500	-26.492	
598.600	-22.984	
598.700	-22.213	
598.800	-14.457	
598.900	-14.727	
599.000	-18.615	
599.100	-21.396	
599.200	-13.844	
599.300	-37.936	
599.400	-18.357	
599.500	-14.882	
599.600	-18.710	
599.700	-10.301	
599.800	-16.045	
599.900	-24.345	
600.000	-23.768	
600.100	-15.749	
600.200	-16.701	
600.300	-10.396	
600.400	-20.672	
600.500	-23.679	
600.600	-28.299	
600.700	-24.558	
600.800	-18.054	
600.900	-22.341	
601.000	-10.935	
601.100	-21.851	
601.200	-24.054	
601.300	-21.148	
601.400	-17.450	
601.500	-10.533	
601.600	-22.970	
601.700	-15.764	
601.800	-22.621	
601.900	-29.000	
602.000	-18.932	
602.100	-21.320	
602.200	-37.716	
602.300	-14.427	
602.400	-12.058	
602.500	-23.313	
602.600	-19.257	
602.700	-20.618	
602.800	-1.452	
602.900	-23.521	
603.000	-24.902	
603.100	-21.790	
603.200	-22.625	
603.300	-23.633	
603.400	-14.944	
603.500	-20.003	
603.600	-23.670	
603.700	-23.757	
603.800	-15.443	
603.900	-27.473	
604.000	-15.055	
604.100	-24.537	
604.200	-18.744	
604.300	-17.890	
604.400	-19.691	
604.500	-6.073	
604.600	-11.023	
604.700	-21.693	
604.800	-26.529	
604.900	-13.394	
605.000	-29.825	
605.100	-24.301	
605.200	-24.280	
605.300	-24.599	
605.400	-16.749	
605.500	-9.967	
605.600	-31.007	
605.700	-15.288	
605.800	-22.423	
605.900	-32.318	
606.000	-25.554	
606.100	-21.872	
606.200	-24.274	
606.300	-6.353	
606.400	-18.435	
606.500	-11.999	
606.600	-15.188	
606.700	-17.632	
606.800	-11.821	
606.900	-22.433	
607.000	-21.255	
607.100	-19.391	
607.200	-9.619	
607.300	-14.413	
607.400	-21.808	
607.500	-9.159	
607.600	-26.617	
607.700	-22.116	
607.800	1.674	
607.900	-12.928	
608.000	-41.260	
608.100	-15.990	
608.200	-13.402	
608.300	-16.577	
608.400	-23.706	
608.500	-13.047	
608.600	-13.594	
608.700	-25.186	
608.800	-38.736	
608.900	-23.559	
609.000	-16.609	
609.100	-23.050	
609.200	-8.406	
609.300	-11.025	
609.400	-32.003	
609.500	-19.942	
609.600	-12.146	
609.700	-28.522	
609.800	-10.213	
609.900	-13.219	
610.000	-14.277	
610.100	-24.646	
610.200	-6.884	
610.300	-34.980	
610.400	-13.593	
610.500	-26.115	
610.600	-20.591	
610.700	-13.938	
610.800	-15.685	
610.900	-8.877	
611.000	-24.355	
611.100	-31.720	
611.200	-7.960	
611.300	-12.659	
611.400	-4.502	
611.500	-17.860	
611.600	-25.947	
611.700	-18.579	
611.800	-22.950	
611.900	-20.239	
612.000	-33.567	
612.100	-25.787	
612.200	-16.436	
612.300	-21.100	
612.400	-22.177	
612.500	-16.498	
612.600	-29.478	
612.700	-19.148	
612.800	-8.256	
612.900	-29.031	
613.000	-19.851	
613.100	-23.071	
613.200	-30.840	
613.300	-8.743	
613.400	-31.451	
613.500	-29.048	
613.600	-20.215	
613.700	-9.012	
613.800	-18.233	
613.900	-25.784	
614.000	-23.833	
614.100	-15.749	
614.200	-21.860	
614.300	-21.847	
614.400	-17.057	
614.500	-14.337	
614.600	-14.764	
614.700	-4.717	
614.800	-16.494	
614.900	-11.233	
615.000	-6.240	
615.100	-18.797	
615.200	-30.579	
615.300	-0.087	
615.400	-23.044	
615.500	-16.870	
615.600	-38.919	
615.700	-6.981	
615.800	-20.252	
615.900	-9.638	
616.000	-18.014	
616.100	-20.070	
616.200	-22.373	
616.300	-23.157	
616.400	-14.633	
616.500	-9.996	
616.600	-28.970	
616.700	-14.522	
616.800	-21.093	
616.900	-17.792	
617.000	-20.782	
617.100	-6.106	
617.200	-18.157	
617.300	-24.103	
617.400	-15.747	
617.500	-23.012	
617.600	-18.883	
617.700	-9.198	
617.800	-30.793	
617.900	-12.947	
618.000	-21.316	
618.100	-1.727	
618.200	-6.819	
618.300	-18.972	
618.400	-17.373	
618.500	-22.288	
618.600	-24.062	
618.700	-26.008	
618.800	-18.065	
618.900	-8.354	
619.000	-25.754	
619.100	-8.567	
619.200	-19.340	
619.300	-23.223	
619.400	-27.870	
619.500	-5.550	
619.600	-6.048	
619.700	-9.995	
619.800	-22.131	
619.900	-19.261	
620.000	-25.749	
620.100	-5.979	
620.200	-20.661	
620.300	-16.042	
620.400	-17.432	
620.500	0.739	
620.600	-9.754	
620.700	-24.998	
620.800	-20.632	
620.900	-14.616	
621.000	-25.515	
621.100	2.063	
621.200	-26.138	
621.300	-20.905	
621.400	-16.860	
621.500	-21.625	
621.600	-21.683	
621.700	-32.101	
621.800	-22.619	
621.900	-3.157	
622.000	-8.691	
622.100	-15.740	
622.200	-8.673	
622.300	-13.826	
622.400	-17.663	
622.500	-29.883	
622.600	-9.995	
622.700	-5.292	
622.800	-19.595	
622.900	-18.991	
623.000	-0.899	
623.100	-28.333	
623.200	-15.382	
623.300	-17.407	
623.400	-9.720	
623.500	-2.244	
623.600	-16.213	
623.700	-24.158	
623.800	-3.670	
623.900	-11.173	
624.000	-10.545	
624.100	-37.034	
624.200	0.438	
624.300	-14.302	
624.400	-6.847	
624.500	-9.145	
624.600	-16.940	
624.700	-7.475	
624.800	-20.027	
624.900	-10.432	
625.000	-4.992	
625.100	-26.358	
625.200	-24.229	
625.300	-17.147	
625.400	-3.746	
625.500	-15.418	
625.600	-12.368	
625.700	-17.876	
625.800	-14.899	
625.900	-17.904	
626.000	-11.647	
626.100	-8.283	
626.200	-16.531	
626.300	-5.919	
626.400	-19.330	
626.500	-22.481	
626.600	-8.679	
626.700	-12.216	
626.800	-26.330	
626.900	-11.343	
627.000	-4.766	
627.100	-9.230	
627.200	-22.423	
627.300	-20.484	
627.400	-16.248	
627.500	-16.831	
627.600	-19.869	
627.700	-1.719	
627.800	-36.434	
627.900	-9.186	
628.000	-23.425	
628.100	-12.270	
628.200	0.324	
628.300	-0.520	
628.400	-6.553	
628.500	-19.531	
628.600	-18.667	
628.700	-2.635	
628.800	-11.346	
628.900	-35.616	
629.000	-14.052	
629.100	-14.979	
629.200	-12.905	
629.300	-8.709	
629.400	-9.665	
629.500	-12.107	
629.600	-40.515	
629.700	-14.089	
629.800	-6.861	
629.900	-16.546	
630.000	3.428	
630.100	2.021	
630.200	10.730	
630.300	-0.724	
630.400	1.937	
630.500	0.062	
630.600	-1.496	
630.700	21.878	
630.800	15.792	
630.900	10.207	
631.000	19.067	
631.100	17.919	
631.200	31.317	
631.300	14.676	
631.400	36.218	
631.500	26.507	
631.600	24.333	
631.700	22.148	
631.800	18.960	
631.900	41.684	
632.000	14.696	
632.100	18.944	
632.200	43.914	
632.300	30.972	
632.400	4.211	
632.500	40.344	
632.600	32.685	
632.700	27.546	
632.800	23.364	
632.900	23.426	
633.000	28.074	
633.100	12.636	
633.200	34.259	
633.300	29.024	
633.400	25.128	
633.500	15.419	
633.600	24.780	
633.700	9.757	
633.800	26.118	
633.900	17.098	
634.000	29.847	
634.100	27.289	
634.200	33.470	
634.300	27.390	
634.400	36.226	
634.500	25.466	
634.600	31.921	
634.700	20.438	
634.800	23.304	
634.900	19.857	
635.000	18.686	
635.100	23.567	
635.200	27.695	
635.300	4.016	
635.400	33.401	
635.500	13.970	
635.600	17.770	
635.700	25.640	
635.800	-4.140	
635.900	14.391	
636.000	24.170	
636.100	26.182	
636.200	15.322	
636.300	23.208	
636.400	27.561	
636.500	15.401	
636.600	30.305	
636.700	29.535	
636.800	21.095	
636.900	26.209	
637.000	19.750	
637.100	17.726	
637.200	15.989	
637.300	10.924	
637.400	25.908	
637.500	36.703	
637.600	-5.159	
637.700	32.074	
637.800	16.638	
637.900	9.513	
638.000	18.902	
638.100	20.419	
638.200	23.323	
638.300	17.168	
638.400	14.665	
638.500	30.695	
638.600	17.893	
638.700	35.219	
638.800	9.088	
638.900	36.964	
639.000	35.092	
639.100	29.792	
639.200	21.670	
639.300	23.717	
639.400	18.542	
639.500	30.343	
639.600	22.847	
639.700	25.944	
639.800	30.358	
639.900	21.476	
640.000	30.674	
640.100	36.066	
640.200	23.235	
640.300	29.960	
640.400	41.336	
640.500	21.265	
640.600	31.750	
640.700	22.280	
640.800	52.530	
640.900	45.075	
641.000	26.423	
641.100	36.065	
641.200	39.680	
641.300	31.183	
641.400	47.943	
641.500	29.897	
641.600	43.889	
641.700	32.639	
641.800	34.968	
641.900	39.718	
642.000	31.283	
642.100	44.171	
642.200	25.731	
642.300	46.430	
642.400	41.283	
642.500	45.693	
642.600	56.642	
642.700	39.968	
642.800	55.087	
642.900	38.128	
643.000	48.605	
643.100	51.492	
643.200	41.254	
643.300	42.818	
643.400	37.338	
643.500	50.234	
643.600	46.490	
643.700	42.710	
643.800	46.648	
643.900	39.197	
644.000	45.456	
644.100	49.593	
644.200	59.907	
644.300	52.020	
644.400	47.397	
644.500	57.017	
644.600	43.386	
644.700	53.125	
644.800	48.009	
644.900	31.856	
645.000	52.077	
645.100	51.722	
645.200	65.757	
645.300	51.558	
645.400	58.912	
645.500	50.908	
645.600	47.928	
645.700	51.215	
645.800	39.565	
645.900	53.317	
646.000	34.434	
646.100	41.041	
646.200	68.779	
646.300	54.096	
646.400	47.181	
646.500	54.003	
646.600	58.938	
646.700	60.651	
646.800	40.834	
646.900	54.581	
647.000	55.269	
647.100	43.473	
647.200	53.386	
647.300	56.887	
647.400	63.939	
647.500	50.551	
647.600	57.899	
647.700	61.832	
647.800	47.549	
647.900	39.474	
648.000	46.595	
648.100	39.021	
648.200	52.815	
648.300	60.922	
648.400	46.432	
648.500	64.354	
648.600	59.858	
648.700	50.329	
648.800	52.216	
648.900	59.322	
649.000	52.747	
649.100	47.731	
649.200	44.881	
649.300	41.923	
649.400	60.504	
649.500	42.945	
649.600	60.576	
649.700	57.838	
649.800	61.224	
649.900	51.286	
650.000	65.329	
650.100	54.362	
650.200	53.892	
650.300	50.144	
650.400	58.776	
650.500	47.725	
650.600	50.955	
650.700	37.810	
650.800	47.724	
650.900	47.293	
651.000	66.042	
651.100	51.694	
651.200	50.001	
651.300	56.406	
651.400	56.179	
651.500	61.382	
651.600	68.446	
651.700	41.460	
651.800	44.123	
651.900	55.222	
652.000	49.255	
652.100	49.515	
652.200	53.330	
652.300	64.280	
652.400	49.130	
652.500	49.150	
652.600	58.103	
652.700	69.696	
652.800	48.078	
652.900	70.073	
653.000	57.134	
653.100	57.340	
653.200	56.289	
653.300	34.084	
653.400	51.193	
653.500	65.291	
653.600	64.760	
653.700	52.000	
653.800	54.095	
653.900	57.252	
654.000	66.100	
654.100	40.924	
654.200	58.781	
654.300	53.143	
654.400	60.377	
654.500	44.365	
654.600	57.449	
654.700	56.810	
654.800	40.624	
654.900	56.661	
655.000	61.972	
655.100	56.777	
655.200	58.141	
655.300	55.227	
655.400	46.769	
655.500	54.235	
655.600	53.219	
655.700	39.230	
655.800	57.721	
655.900	40.126	
656.000	62.803	
656.100	57.160	
656.200	46.195	
656.300	54.604	
656.400	78.282	
656.500	53.002	
656.600	59.737	
656.700	52.742	
656.800	55.197	
656.900	57.109	
657.000	49.090	
657.100	55.903	
657.200	58.319	
657.300	57.236	
657.400	46.706	
657.500	63.036	
657.600	56.478	
657.700	63.283	
657.800	51.979	
657.900	43.053	
658.000	50.127	
658.100	45.664	
658.200	61.622	
658.300	34.031	
658.400	62.393	
658.500	61.721	
658.600	46.100	
658.700	58.246	
658.800	39.937	
658.900	38.639	
659.000	52.922	
659.100	52.634	
659.200	62.553	
659.300	41.949	
659.400	47.995	
659.500	69.139	
659.600	59.497	
659.700	48.320	
659.800	48.796	
659.900	59.549	
660.000	54.979	
660.100	49.247	
660.200	61.899	
660.300	56.066	
660.400	50.338	
660.500	36.478	
660.600	64.990	
660.700	52.072	
660.800	44.229	
660.900	41.057	
661.000	53.363	
661.100	67.112	
661.200	32.605	
661.300	52.363	
661.400	67.270	
661.500	56.961	
661.600	47.838	
661.700	64.946	
661.800	44.888	
661.900	52.246	
662.000	66.367	
662.100	41.951	
662.200	47.256	
662.300	52.682	
662.400	58.066	
662.500	48.867	
662.600	24.796	
662.700	61.430	
662.800	60.095	
662.900	39.555	
663.000	52.704	
663.100	55.908	
663.200	47.689	
663.300	54.696	
663.400	63.288	
663.500	63.978	
663.600	53.507	
663.700	56.739	
663.800	52.190	
663.900	56.945	
664.000	45.052	
664.100	62.637	
664.200	53.057	
664.300	56.682	
664.400	49.672	
664.500	53.454	
664.600	54.009	
664.700	51.967	
664.800	58.491	
664.900	47.650	
665.000	43.266	
665.100	66.750	
665.200	57.662	
665.300	43.076	
665.400	40.714	
665.500	48.554	
665.600	53.657	
665.700	48.712	
665.800	55.506	
665.900	55.336	
666.000	52.572	
666.100	61.740	
666.200	57.711	
666.300	48.995	
666.400	36.990	
666.500	41.922	
666.600	58.938	
666.700	43.278	
666.800	62.776	
666.900	45.943	
667.000	45.340	
667.100	45.543	
667.200	46.598	
667.300	52.582	
667.400	59.517	
667.500	59.179	
667.600	48.986	
667.700	57.965	
667.800	46.781	
667.900	46.840	
668.000	54.616	
668.100	47.001	
668.200	57.296	
668.300	35.867	
668.400	46.164	
668.500	45.695	
668.600	54.016	
668.700	39.119	
668.800	56.331	
668.900	52.402	
669.000	49.124	
669.100	55.446	
669.200	40.738	
669.300	46.883	
669.400	52.570	
669.500	42.747	
669.600	40.344	
669.700	40.562	
669.800	58.180	
669.900	40.261	
670.000	52.376	
670.100	53.992	
670.200	52.535	
670.300	43.844	
670.400	43.219	
670.500	71.004	
670.600	54.794	
670.700	51.766	
670.800	56.263	
670.900	47.717	
671.000	44.257	
671.100	57.744	
671.200	45.657	
671.300	52.534	
671.400	46.019	
671.500	60.425	
671.600	43.253	
671.700	61.937	
671.800	56.412	
671.900	43.293	
672.000	56.698	
672.100	48.644	
672.200	47.829	
672.300	52.585	
672.400	61.597	
672.500	48.734	
672.600	47.846	
672.700	49.086	
672.800	64.659	
672.900	38.326	
673.000	39.044	
673.100	56.688	
673.200	51.509	
673.300	44.457	
673.400	44.479	
673.500	41.087	
673.600	27.426	
673.700	39.926	
673.800	56.960	
673.900	45.660	
674.000	45.217	
674.100	47.228	
674.200	49.345	
674.300	53.148	
674.400	62.588	
674.500	52.039	
674.600	60.296	
674.700	43.447	
674.800	50.717	
674.900	53.958	
675.000	44.902	
675.100	58.277	
675.200	41.735	
675.300	48.069	
675.400	42.574	
675.500	54.654	
675.600	61.933	
675.700	46.621	
675.800	52.007	
675.900	55.796	
676.000	48.439	
676.100	58.341	
676.200	50.685	
676.300	53.053	
676.400	48.154	
676.500	38.355	
676.600	51.014	
676.700	44.032	
676.800	61.440	
676.900	51.028	
677.000	43.679	
677.100	46.315	
677.200	45.091	
677.300	47.696	
677.400	51.941	
677.500	43.999	
677.600	42.664	
677.700	46.973	
677.800	45.146	
677.900	44.759	
678.000	58.047	
678.100	55.377	
678.200	29.429	
678.300	35.961	
678.400	43.869	
678.500	52.305	
678.600	65.465	
678.700	52.157	
678.800	54.333	
678.900	49.949	
679.000	48.726	
679.100	45.356	
679.200	42.546	
679.300	35.616	
679.400	32.627	
679.500	49.751	
679.600	65.875	
679.700	42.756	
679.800	57.305	
679.900	39.292	
680.000	61.857	
680.100	40.356	
680.200	48.958	
680.300	41.510	
680.400	52.433	
680.500	42.058	
680.600	41.945	
680.700	49.614	
680.800	42.860	
680.900	48.264	
681.000	56.703	
681.100	49.870	
681.200	57.020	
681.300	36.259	
681.400	57.589	
681.500	33.805	
681.600	43.417	
681.700	38.259	
681.800	42.601	
681.900	48.072	
682.000	61.945	
682.100	55.636	
682.200	51.982	
682.300	49.800	
682.400	43.243	
682.500	38.532	
682.600	39.120	
682.700	54.395	
682.800	38.951	
682.900	52.807	
683.000	32.500	
683.100	54.903	
683.200	37.804	
683.300	47.313	
683.400	40.484	
683.500	42.644	
683.600	59.633	
683.700	37.601	
683.800	50.744	
683.900	42.888	
684.000	51.447	
684.100	52.683	
684.200	49.099	
684.300	46.714	
684.400	49.371	
684.500	46.578	
684.600	38.708	
684.700	53.866	
684.800	41.177	
684.900	54.869	
685.000	38.478	
685.100	45.934	
685.200	36.571	
685.300	43.821	
685.400	60.476	
685.500	53.572	
685.600	43.467	
685.700	38.245	
685.800	38.481	
685.900	57.677	
686.000	46.690	
686.100	16.311	
686.200	46.503	
686.300	39.210	
686.400	35.463	
686.500	38.563	
686.600	49.395	
686.700	42.638	
686.800	45.033	
686.900	38.030	
687.000	46.234	
687.100	48.631	
687.200	55.168	
687.300	40.951	
687.400	50.656	
687.500	36.157	
687.600	42.481	
687.700	45.992	
687.800	43.091	
687.900	42.689	
688.000	47.143	
688.100	35.475	
688.200	58.221	
688.300	44.806	
688.400	23.984	
688.500	43.136	
688.600	43.282	
688.700	42.505	
688.800	36.833	
688.900	34.620	
689.000	51.772	
689.100	39.590	
689.200	52.223	
689.300	49.910	
689.400	46.157	
689.500	41.389	
689.600	56.259	
689.700	55.001	
689.800	39.656	
689.900	30.628	
690.000	47.784	
690.100	36.090	
690.200	21.529	
690.300	47.398	
690.400	25.309	
690.500	29.762	
690.600	24.181	
690.700	28.415	
690.800	23.365	
690.900	11.337	
691.000	24.666	
691.100	24.848	
691.200	24.549	
691.300	24.876	
691.400	8.685	
691.500	6.322	
691.600	28.229	
691.700	6.646	
691.800	8.702	
691.900	9.212	
692.000	25.030	
692.100	17.362	
692.200	19.219	
692.300	28.063	
692.400	-2.923	
692.500	13.263	
692.600	7.788	
692.700	16.604	
692.800	-19.732	
692.900	14.241	
693.000	13.754	
693.100	14.032	
693.200	24.935	
693.300	10.553	
693.400	9.224	
693.500	5.156	
693.600	9.188	
693.700	-6.570	
693.800	10.720	
693.900	-7.216	
694.000	-1.561	
694.100	2.703	
694.200	2.704	
694.300	-15.532	
694.400	-6.808	
694.500	-20.233	
694.600	2.002	
694.700	-22.209	
694.800	-2.533	
694.900	-2.689	
695.000	-37.329	
695.100	-10.025	
695.200	-14.287	
695.300	-24.504	
695.400	-14.344	
695.500	-19.704	
695.600	-13.947	
695.700	-38.534	
695.800	-28.710	
695.900	-8.818	
696.000	-17.176	
696.100	-25.265	
696.200	-39.322	
696.300	-3.944	
696.400	-44.040	
696.500	-17.692	
696.600	-22.482	
696.700	-17.495	
696.800	-1.134	
696.900	-25.081	
697.000	-38.052	
697.100	-14.845	
697.200	-20.794	
697.300	-21.699	
697.400	-27.791	
697.500	-11.266	
697.600	-15.352	
697.700	-47.956	
697.800	-13.029	
697.900	-15.359	
698.000	-16.347	
698.100	-13.557	
698.200	-21.460	
698.300	-15.452	
698.400	-14.151	
698.500	-22.525	
698.600	-21.457	
698.700	-7.852	
698.800	-11.350	
698.900	-30.100	
699.000	-21.299	
699.100	-16.475	
699.200	-10.016	
699.300	-24.689	
699.400	-4.991	
699.500	-25.778	
699.600	-12.920	
699.700	-7.908	
699.800	-13.074	
699.900	-29.134	
700.000	-13.002	
700.100	-36.592	
700.200	-14.805	
700.300	-19.291	
700.400	-4.935	
700.500	-17.124	
700.600	-4.458	
700.700	-27.867	
700.800	-25.418	
700.900	-23.058	
701.000	-30.315	
701.100	-27.227	
701.200	-27.597	
701.300	-21.030	
701.400	-16.448	
701.500	-12.268	
701.600	-24.786	
701.700	-11.161	
701.800	-10.753	
701.900	-13.187	
702.000	-13.390	
702.100	-25.492	
702.200	-15.307	
702.300	-23.141	
702.400	-16.484	
702.500	-9.508	
702.600	-23.518	
702.700	-20.869	
702.800	-9.423	
702.900	-16.380	
703.000	-18.455	
703.100	-10.709	
703.200	-13.173	
703.300	-14.400	
703.400	-7.910	
703.500	-13.124	
703.600	-21.321	
703.700	-19.801	
703.800	-10.196	
703.900	-13.426	
704.000	-27.140	
704.100	-13.127	
704.200	-20.926	
704.300	-18.068	
704.400	-20.656	
704.500	-5.050	
704.600	-11.255	
704.700	-25.361	
704.800	-20.389	
704.900	-21.234	
705.000	-12.354	
705.100	-23.020	
705.200	-11.646	
705.300	-15.138	
705.400	-15.357	
705.500	-25.046	
705.600	-29.551	
705.700	-13.304	
705.800	-9.797	
705.900	-22.196	
706.000	-16.791	
706.100	-24.548	
706.200	-17.420	
706.300	-8.659	
706.400	-4.149	
706.500	-24.978	
706.600	-19.305	
706.700	-13.638	
706.800	-35.076	
706.900	-19.258	
707.000	0.250	
707.100	-17.711	
707.200	-23.548	
707.300	-16.197	
707.400	-31.364	
707.500	-8.375	
707.600	-14.617	
707.700	-8.784	
707.800	-21.264	
707.900	-10.707	
708.000	-13.556	
708.100	-23.132	
708.200	-19.155	
708.300	-40.327	
708.400	-12.107	
708.500	-22.932	
708.600	-8.138	
708.700	-17.373	
708.800	-15.898	
708.900	-6.225	
709.000	-29.106	
709.100	-16.699	
709.200	-18.172	
709.300	-19.953	
709.400	-21.654	
709.500	-21.387	
709.600	-23.918	
709.700	-10.659	
709.800	-22.285	
709.900	-8.401	
710.000	-15.462	
710.100	-20.844	
710.200	-12.655	
710.300	-10.606	
710.400	-23.435	
710.500	-17.520	
710.600	-27.110	
710.700	-15.748	
710.800	-28.173	
710.900	-10.134	
711.000	-19.696	
711.100	-12.874	
711.200	-21.067	
711.300	-20.721	
711.400	-27.028	
711.500	-7.818	
711.600	-21.605	
711.700	-33.685	
711.800	-19.213	
711.900	-22.568	
712.000	-16.610	
712.100	-17.594	
712.200	-48.045	
712.300	0.897	
712.400	-15.641	
712.500	-23.148	
712.600	-19.850	
712.700	-19.322	
712.800	-19.609	
712.900	-25.311	
713.000	-28.053	
713.100	-26.384	
713.200	-24.996	
713.300	-37.160	
713.400	-7.201	
713.500	-21.461	
713.600	-37.999	
713.700	-2.801	
713.800	-18.505	
713.900	-29.170	
714.000	-30.290	
714.100	-16.625	
714.200	-21.888	
714.300	-19.010	
714.400	-30.216	
714.500	-25.436	
714.600	-14.942	
714.700	-24.810	
714.800	-13.370	
714.900	-15.895	
715.000	-27.551	
715.100	-17.173	
715.200	-24.602	
715.300	-31.294	
715.400	-30.882	
715.500	-17.633	
715.600	-21.353	
715.700	-30.888	
715.800	-21.775	
715.900	-22.870	
716.000	-22.816	
716.100	-20.112	
716.200	-28.742	
716.300	-30.059	
716.400	-22.336	
716.500	-30.495	
716.600	-19.238	
716.700	-19.679	
716.800	-33.819	
716.900	-23.201	
717.000	-22.912	
717.100	-10.499	
717.200	-24.620	
717.300	-24.957	
717.400	-27.488	
717.500	-25.102	
717.600	-25.289	
717.700	-32.457	
717.800	-28.150	
717.900	-24.075	
718.000	-15.287	
718.100	-14.823	
718.200	-19.744	
718.300	-21.927	
718.400	-16.617	
718.500	-30.857	
718.600	-25.910	
718.700	-23.056	
718.800	-12.425	
718.900	-24.579	
719.000	-37.055	
719.100	-22.596	
719.200	-24.582	
719.300	-18.658	
719.400	-26.186	
719.500	-33.872	
719.600	-26.501	
719.700	-19.802	
719.800	-24.663	
719.900	-26.856	
720.000	-15.281	
720.100	-20.018	
720.200	-38.880	
720.300	-19.168	
720.400	-25.104	
720.500	-36.247	
720.600	-27.707	
720.700	-24.988	
720.800	-14.283	
720.900	-36.461	
721.000	-30.378	
721.100	-29.550	
721.200	-26.599	
721.300	-14.715	
721.400	-33.332	
721.500	-15.776	
721.600	0.614	
721.700	-31.467	
721.800	-32.769	
721.900	-28.157	
722.000	-29.784	
722.100	-17.247	
722.200	-36.713	
722.300	-33.993	
722.400	-19.024	
722.500	-23.863	
722.600	-27.631	
722.700	-38.841	
722.800	-39.252	
722.900	-18.128	
723.000	-25.369	
723.100	-37.640	
723.200	-22.633	
723.300	-23.500	
723.400	-22.745	
723.500	-22.055	
723.600	-39.703	
723.700	-22.721	
723.800	-33.293	
723.900	-30.858	
724.000	-24.274	
724.100	-30.739	
724.200	-29.954	
724.300	-28.444	
724.400	-35.293	
724.500	-22.449	
724.600	-27.159	
724.700	-31.079	
724.800	-30.519	
724.900	-38.281	
725.000	-25.460	
725.100	-22.375	
725.200	-29.470	
725.300	-30.618	
725.400	-28.840	
725.500	-19.733	
725.600	-52.446	
725.700	-23.099	
725.800	-21.367	
725.900	-27.486	
726.000	-39.419	
726.100	-26.397	
726.200	-23.323	
726.300	-26.675	
726.400	-22.014	
726.500	-24.195	
726.600	-23.707	
726.700	-35.473	
726.800	-25.252	
726.900	-27.916	
727.000	-38.097	
727.100	-24.330	
727.200	-29.232	
727.300	-27.863	
727.400	-28.965	
727.500	-24.131	
727.600	-32.490	
727.700	-28.770	
727.800	-9.917	
727.900	-48.898	
728.000	-22.728	
728.100	-6.588	
728.200	-37.041	
728.300	-29.862	
728.400	-24.013	
728.500	-27.472	
728.600	-19.162	
728.700	-27.387	
728.800	-31.900	
728.900	-36.011	
729.000	-23.780	
729.100	-39.731	
729.200	-23.682	
729.300	-26.837	
729.400	-31.337	
729.500	-36.232	
729.600	-20.941	
729.700	-29.309	
729.800	-44.027	
729.900	-33.858	
730.000	-29.390	
730.100	-27.864	
730.200	-37.206	
730.300	-13.735	
730.400	-20.981	
730.500	-27.820	
730.600	-34.783	
730.700	-26.871	
730.800	-15.954	
730.900	-29.684	
731.000	-42.209	
731.100	-16.750	
731.200	-25.081	
731.300	-32.720	
731.400	-16.994	
731.500	-30.269	
731.600	-26.692	
731.700	-38.259	
731.800	-18.876	
731.900	-29.100	
732.000	-32.109	
732.100	-27.155	
732.200	-25.677	
732.300	-22.676	
732.400	-27.269	
732.500	-18.336	
732.600	-19.408	
732.700	-30.232	
732.800	-31.226	
732.900	-29.392	
733.000	-26.221	
733.100	-26.648	
733.200	-30.262	
733.300	-20.626	
733.400	-33.554	
733.500	-39.872	
733.600	-34.584	
733.700	-32.106	
733.800	-20.057	
733.900	-30.279	
734.000	-16.434	
734.100	-34.408	
734.200	-30.761	
734.300	-20.006	
734.400	-47.119	
734.500	-17.457	
734.600	-30.471	
734.700	-22.513	
734.800	-29.482	
734.900	-27.701	
735.000	-27.424	
735.100	-27.971	
735.200	-36.298	
735.300	-30.279	
735.400	-16.840	
735.500	-30.352	
735.600	-25.754	
735.700	-24.433	
735.800	-26.351	
735.900	-25.789	
736.000	-29.704	
736.100	-23.616	
736.200	-24.230	
736.300	-34.089	
736.400	-19.168	
736.500	-20.122	
736.600	-27.977	
736.700	-18.035	
736.800	-28.675	
736.900	-28.268	
737.000	-40.759	
737.100	-9.985	
737.200	-17.398	
737.300	-23.394	
737.400	-30.585	
737.500	-37.970	
737.600	-11.983	
737.700	-23.921	
737.800	-30.485	
737.900	-29.474	
738.000	-9.864	
738.100	-20.844	
738.200	-24.401	
738.300	-33.697	
738.400	-21.754	
738.500	-19.026	
738.600	-28.295	
738.700	-26.039	
738.800	-26.867	
738.900	-23.031	
739.000	-31.692	
739.100	-2.052	
739.200	-37.237	
739.300	-38.029	
739.400	-27.538	
739.500	-20.760	
739.600	-16.943	
739.700	-16.752	
739.800	-27.954	
739.900	-27.305	
740.000	-21.849	
740.100	-28.546	
740.200	-23.104	
740.300	-20.729	
740.400	-34.895	
740.500	-29.380	
740.600	-25.316	
740.700	-29.940	
740.800	-32.179	
740.900	-21.155	
741.000	-27.802	
741.100	-27.342	
741.200	-28.168	
741.300	-16.758	
741.400	-31.690	
741.500	-27.788	
741.600	-25.362	
741.700	-30.444	
741.800	-16.767	
741.900	-30.835	
742.000	-22.831	
742.100	-13.953	
742.200	-22.951	
742.300	-29.689	
742.400	-30.236	
742.500	-13.185	
742.600	-23.111	
742.700	-16.249	
742.800	-15.983	
742.900	-23.106	
743.000	-15.278	
743.100	-25.211	
743.200	-15.349	
743.300	-24.003	
743.400	-23.665	
743.500	-26.418	
743.600	-22.938	
743.700	-34.001	
743.800	-34.952	
743.900	-22.370	
744.000	-18.799	
744.100	-10.957	
744.200	-18.953	
744.300	-15.369	
744.400	-30.911	
744.500	-34.101	
744.600	-17.979	
744.700	-46.381	
744.800	-11.117	
744.900	-21.189	
745.000	-15.170	
745.100	-5.607	
745.200	-42.306	
745.300	-19.191	
745.400	-38.292	
745.500	-29.493	
745.600	-24.309	
745.700	-23.251	
745.800	-21.678	
745.900	-31.277	
746.000	-27.474	
746.100	-27.329	
746.200	-14.032	
746.300	-11.438	
746.400	-12.000	
746.500	-39.028	
746.600	-30.005	
746.700	-19.803	
746.800	-8.275	
746.900	-20.161	
747.000	-39.178	
747.100	-22.501	
747.200	-12.854	
747.300	-37.220	
747.400	-28.718	
747.500	-0.069	
747.600	-16.202	
747.700	-19.093	
747.800	-19.460	
747.900	-20.360	
748.000	-21.496	
748.100	-30.495	
748.200	-14.714	
748.300	-17.113	
748.400	-35.400	
748.500	-16.622	
748.600	-24.133	
748.700	-24.364	
748.800	-14.994	
748.900	-35.673	
749.000	-23.296	
749.100	-26.134	
749.200	-25.640	
749.300	-4.751	
749.400	-20.982	
749.500	-29.103	
749.600	-24.641	
749.700	-21.884	
749.800	-22.991	
749.900	-19.009	
750.000	-23.049	
750.100	-15.197	
750.200	-19.505	
750.300	-26.426	
750.400	-46.251	
750.500	-3.385	
750.600	-27.670	
750.700	-21.698	
750.800	-24.524	
750.900	-18.456	
751.000	-12.260	
751.100	-9.798	
751.200	-28.097	
751.300	-20.543	
751.400	-22.250	
751.500	-34.053	
751.600	-21.114	
751.700	-23.256	
751.800	-28.231	
751.900	-15.409	
752.000	-38.660	
752.100	-14.789	
752.200	-12.541	
752.300	-21.862	
752.400	-12.996	
752.500	-25.388	
752.600	-19.595	
752.700	-15.016	
752.800	-12.147	
752.900	-29.531	
753.000	-25.601	
753.100	-18.475	
753.200	-9.769	
753.300	-25.070	
753.400	-25.380	
753.500	-25.151	
753.600	-7.440	
753.700	-7.761	
753.800	-31.895	
753.900	-32.541	
754.000	-9.844	
754.100	-21.270	
754.200	-24.135	
754.300	-36.531	
754.400	7.134	
754.500	-29.057	
754.600	-23.816	
754.700	-20.205	
754.800	-30.602	
754.900	-20.243	
755.000	-4.274	
755.100	-26.657	
755.200	-15.030	
755.300	-20.198	
755.400	-17.070	
755.500	-17.021	
755.600	-11.869	
755.700	-25.015	
755.800	-8.002	
755.900	-26.342	
756.000	-10.587	
756.100	-22.170	
756.200	-7.635	
756.300	-11.697	
756.400	-22.169	
756.500	-4.912	
756.600	-15.676	
756.700	-36.984	
756.800	-4.265	
756.900	-7.140	
757.000	-15.194	
757.100	-22.055	
757.200	-16.965	
757.300	-26.124	
757.400	-12.342	
757.500	-15.057	
757.600	-11.467	
757.700	-14.868	
757.800	-20.271	
757.900	-6.418	
758.000	-19.741	
758.100	-29.972	
758.200	-16.091	
758.300	-26.842	
758.400	-20.583	
758.500	-15.277	
758.600	-23.948	
758.700	-14.804	
758.800	-5.062	
758.900	-20.044	
759.000	-16.411	
759.100	-17.695	
759.200	-20.864	
759.300	-17.604	
759.400	-27.198	
759.500	-15.765	
759.600	-7.922	
759.700	-14.809	
759.800	-47.618	
759.900	-17.319	
760.000	-28.922	
760.100	-5.529	
760.200	-30.006	
760.300	-15.542	
760.400	-6.445	
760.500	-18.507	
760.600	-27.299	
760.700	-3.479	
760.800	-21.112	
760.900	-24.019	
761.000	-11.312	
761.100	-14.118	
761.200	-7.348	
761.300	-12.527	
761.400	-38.057	
761.500	-10.974	
761.600	-23.076	
761.700	-9.562	
761.800	-26.233	
761.900	-11.909	
762.000	-16.297	
762.100	-32.768	
762.200	-15.775	
762.300	-10.446	
762.400	-15.872	
762.500	-21.770	
762.600	-25.723	
762.700	-16.884	
762.800	-15.596	
762.900	-30.110	
763.000	-9.740	
763.100	-14.901	
763.200	-22.517	
763.300	-17.629	
763.400	-25.042	
763.500	-27.362	
763.600	-11.203	
763.700	-21.833	
763.800	-10.461	
763.900	-15.929	
764.000	-25.723	
764.100	-20.060	
764.200	-4.614	
764.300	-9.668	
764.400	-17.730	
764.500	-11.785	
764.600	-18.848	
764.700	-11.556	
764.800	-30.473	
764.900	-23.753	
765.000	-15.374	
765.100	-15.735	
765.200	-12.556	
765.300	-11.122	
765.400	-23.864	
765.500	-18.070	
765.600	-19.322	
765.700	-19.005	
765.800	-40.016	
765.900	-8.513	
766.000	-12.473	
766.100	-19.749	
766.200	-27.715	
766.300	-25.268	
766.400	-16.107	
766.500	-17.419	
766.600	-18.451	
766.700	-7.834	
766.800	-15.109	
766.900	-37.614	
767.000	-35.114	
767.100	-23.059	
767.200	-1.857	
767.300	-13.761	
767.400	-38.372	
767.500	-3.031	
767.600	-20.177	
767.700	-18.352	
767.800	-23.598	
767.900	-16.499	
768.000	-18.760	
768.100	-27.233	
768.200	-17.742	
768.300	-19.539	
768.400	-2.282	
768.500	-32.728	
768.600	-10.897	
768.700	-19.481	
768.800	-33.340	
768.900	-5.891	
769.000	-15.065	
769.100	-16.797	
769.200	-24.379	
769.300	-13.881	
769.400	-2.237	
769.500	-19.250	
769.600	-33.231	
769.700	-6.853	
769.800	-15.855	
769.900	-30.908	
770.000	-11.337	
770.100	-21.245	
770.200	-11.941	
770.300	-1.383	
770.400	-12.543	
770.500	-28.098	
770.600	-16.588	
770.700	-20.336	
770.800	-8.184	
770.900	-28.208	
771.000	-11.379	
771.100	-29.412	
771.200	-22.947	
771.300	-12.154	
771.400	-3.855	
771.500	-23.371	
771.600	-11.563	
771.700	-15.585	
771.800	-6.840	
771.900	-21.724	
772.000	-9.342	
772.100	-17.826	
772.200	-8.146	
772.300	-16.504	
772.400	-24.873	
772.500	0.117	
772.600	-16.724	
772.700	-27.687	
772.800	-13.605	
772.900	-11.293	
773.000	-14.506	
773.100	-24.756	
773.200	-17.141	
773.300	-27.455	
773.400	-11.521	
773.500	-9.611	
773.600	-18.287	
773.700	-10.330	
773.800	-26.849	
773.900	-29.040	
774.000	-3.357	
774.100	-11.451	
774.200	-11.219	
774.300	-24.216	
774.400	-2.573	
774.500	-24.103	
774.600	-6.531	
774.700	-8.635	
774.800	-6.385	
774.900	-13.599	
775.000	-13.290	
775.100	-1.366	
775.200	-14.692	
775.300	-25.303	
775.400	-28.793	
775.500	-1.953	
775.600	-2.589	
775.700	-17.355	
775.800	-21.108	
775.900	-28.381	
776.000	-21.257	
776.100	-0.355	
776.200	-9.787	
776.300	-7.161	
776.400	-20.322	
776.500	-15.326	
776.600	-17.264	
776.700	-21.283	
776.800	-6.599	
776.900	-19.194	
777.000	-7.654	
777.100	-5.244	
777.200	-21.474	
777.300	-9.589	
777.400	-16.893	
777.500	-2.748	
777.600	-6.468	
777.700	-18.315	
777.800	-25.410	
777.900	-23.091	
778.000	-11.050	
778.100	-26.902	
778.200	-13.760	
778.300	-24.345	
778.400	-13.057	
778.500	-22.682	
778.600	-12.710	
778.700	-24.041	
778.800	-29.525	
778.900	-18.653	
779.000	-2.489	
779.100	-24.601	
779.200	-20.905	
779.300	-14.854	
779.400	-21.661	
779.500	-12.393	
779.600	-9.202	
779.700	-17.217	
779.800	-28.285	
779.900	-18.458	
780.000	-5.927	
780.100	-9.533	
780.200	5.848	
780.300	-2.602	
780.400	6.709	
780.500	11.171	
780.600	4.280	
780.700	24.205	
780.800	27.105	
780.900	19.731	
781.000	15.823	
781.100	23.452	
781.200	24.583	
781.300	5.429	
781.400	4.883	
781.500	31.819	
781.600	15.655	
781.700	19.250	
781.800	19.459	
781.900	23.242	
782.000	25.298	
782.100	24.340	
782.200	29.456	
782.300	28.906	
782.400	15.306	
782.500	21.814	
782.600	17.633	
782.700	12.413	
782.800	25.312	
782.900	28.043	
783.000	14.482	
783.100	32.368	
783.200	36.890	
783.300	33.539	
783.400	19.330	
783.500	32.908	
783.600	37.941	
783.700	28.790	
783.800	22.385	
783.900	31.101	
784.000	28.246	
784.100	25.248	
784.200	11.492	
784.300	23.655	
784.400	23.382	
784.500	30.942	
784.600	3.920	
784.700	30.145	
784.800	23.283	
784.900	21.063	
785.000	23.751	
785.100	17.408	
785.200	27.606	
785.300	34.909	
785.400	26.703	
785.500	14.438	
785.600	31.518	
785.700	21.415	
785.800	32.497	
785.900	8.231	
786.000	23.902	
786.100	23.309	
786.200	11.176	
786.300	21.185	
786.400	28.889	
786.500	26.000	
786.600	14.273	
786.700	10.267	
786.800	22.975	
786.900	27.023	
787.000	19.002	
787.100	25.694	
787.200	21.355	
787.300	4.730	
787.400	29.510	
787.500	26.771	
787.600	19.684	
787.700	12.075	
787.800	29.103	
787.900	0.039	
788.000	18.245	
788.100	30.070	
788.200	57.603	
788.300	22.247	
788.400	21.792	
788.500	25.804	
788.600	17.830	
788.700	27.134	
788.800	6.831	
788.900	21.358	
789.000	39.552	
789.100	34.591	
789.200	20.589	
789.300	19.911	
789.400	20.049	
789.500	29.154	
789.600	41.639	
789.700	25.739	
789.800	15.303	
789.900	37.412	
790.000	29.733	
790.100	25.630	
790.200	30.321	
790.300	33.137	
790.400	31.885	
790.500	14.350	
790.600	37.537	
790.700	36.944	
790.800	32.677	
790.900	23.001	
791.000	40.366	
791.100	54.180	
791.200	27.284	
791.300	44.600	
791.400	39.543	
791.500	34.885	
791.600	47.433	
791.700	42.365	
791.800	47.225	
791.900	36.651	
792.000	33.981	
792.100	38.949	
792.200	46.785	
792.300	43.365	
792.400	42.316	
792.500	40.831	
792.600	32.984	
792.700	43.677	
792.800	49.432	
792.900	41.544	
793.000	57.649	
793.100	44.003	
793.200	50.777	
793.300	41.856	
793.400	41.523	
793.500	55.755	
793.600	47.413	
793.700	47.585	
793.800	41.258	
793.900	48.854	
794.000	33.881	
794.100	48.353	
794.200	63.843	
794.300	48.734	
794.400	49.910	
794.500	64.152	
794.600	52.121	
794.700	51.037	
794.800	50.307	
794.900	48.425	
795.000	52.680	
795.100	59.976	
795.200	48.009	
795.300	41.757	
795.400	33.511	
795.500	61.035	
795.600	44.257	
795.700	50.695	
795.800	49.482	
795.900	70.213	
796.000	59.812	
796.100	52.624	
796.200	39.970	
796.300	49.690	
796.400	54.235	
796.500	52.041	
796.600	53.064	
796.700	34.149	
796.800	43.670	
796.900	50.190	
797.000	48.833	
797.100	54.753	
797.200	55.151	
797.300	55.088	
797.400	53.722	
797.500	52.974	
797.600	58.267	
797.700	44.315	
797.800	59.247	
797.900	48.929	
798.000	48.878	
798.100	57.988	
798.200	59.174	
798.300	52.194	
798.400	57.407	
798.500	43.997	
798.600	70.646	
798.700	53.380	
798.800	56.605	
798.900	52.652	
799.000	61.250	
799.100	48.977	
799.200	62.459	
799.300	55.039	
799.400	55.265	
799.500	54.394	
799.600	41.563	
799.700	66.750	
799.800	50.531	
799.900	46.327	
800.000	47.844	
