time /s	I /nA	
0.100	20.762	
0.200	6.566	
0.300	0.776	
0.400	2.204	
0.500	9.629	
0.600	11.723	
0.700	-3.117	
0.800	8.646	
0.900	-4.051	
1.000	8.943	
1.100	-3.142	
1.200	6.832	
1.300	0.102	
1.400	-6.417	
1.500	-2.485	
1.600	1.239	
1.700	2.082	
1.800	5.808	
1.900	12.095	
2.000	2.003	
2.100	-8.881	
2.200	7.263	
2.300	3.499	
2.400	8.583	
2.500	0.825	
2.600	5.952	
2.700	-11.707	
2.800	-6.630	
2.900	1.651	
3.000	-2.564	
3.100	7.638	
3.200	2.616	
3.300	-5.701	
3.400	7.971	
3.500	-11.548	
3.600	-0.644	
3.700	7.822	
3.800	15.779	
3.900	-1.879	
4.000	-6.996	
4.100	-1.337	
4.200	7.117	
4.300	-2.842	
4.400	7.583	
4.500	4.683	
4.600	5.159	
4.700	0.205	
4.800	5.685	
4.900	-4.112	
5.000	-2.974	
5.100	-4.338	
5.200	12.090	
5.300	-5.112	
5.400	3.628	
5.500	-1.310	
5.600	-0.342	
5.700	-9.422	
5.800	11.200	
5.900	14.590	
6.000	-8.261	
6.100	-10.467	
6.200	11.354	
6.300	0.746	
6.400	-5.529	
6.500	14.186	
6.600	-1.585	
6.700	1.383	
6.800	-12.925	
6.900	10.669	
7.000	5.348	
7.100	-8.088	
7.200	3.553	
7.300	5.171	
7.400	4.054	
7.500	-13.636	
7.600	3.529	
7.700	9.429	
7.800	0.333	
7.900	4.525	
8.000	-13.175	
8.100	3.902	
8.200	-1.797	
8.300	3.539	
8.400	-6.823	
8.500	1.216	
8.600	9.827	
8.700	12.311	
8.800	9.557	
8.900	7.144	
9.000	-12.358	
9.100	0.592	
9.200	-1.712	
9.300	-12.023	
9.400	4.493	
9.500	-5.748	
9.600	-2.757	
9.700	5.930	
9.800	-14.028	
9.900	11.010	
10.000	14.034	
10.100	-15.015	
10.200	9.157	
10.300	1.999	
10.400	-11.873	
10.500	-1.464	
10.600	-5.731	
10.700	3.508	
10.800	15.348	
10.900	-0.512	
11.000	-5.051	
11.100	0.564	
11.200	3.095	
11.300	6.869	
11.400	5.996	
11.500	-0.491	
11.600	-16.669	
11.700	5.386	
11.800	-6.297	
11.900	-6.659	
12.000	4.756	
12.100	-14.513	
12.200	2.090	
12.300	2.855	
12.400	-10.168	
12.500	10.514	
12.600	-6.820	
12.700	-1.061	
12.800	-5.067	
12.900	-11.511	
13.000	18.527	
13.100	9.450	
13.200	0.688	
13.300	-3.942	
13.400	-5.077	
13.500	4.685	
13.600	-10.420	
13.700	-1.389	
13.800	-2.555	
13.900	-9.784	
14.000	5.859	
14.100	2.888	
14.200	-1.406	
14.300	21.848	
14.400	4.682	
14.500	-2.717	
14.600	-2.736	
14.700	8.729	
14.800	4.635	
14.900	-6.938	
15.000	10.710	
15.100	3.269	
15.200	9.258	
15.300	-6.038	
15.400	5.564	
15.500	-5.533	
15.600	4.667	
15.700	4.254	
15.800	-3.895	
15.900	-5.396	
16.000	-4.031	
16.100	-7.354	
16.200	-10.234	
16.300	5.934	
16.400	5.745	
16.500	15.702	
16.600	5.994	
16.700	-3.698	
16.800	-1.572	
16.900	-10.298	
17.000	-8.725	
17.100	-9.190	
17.200	-0.376	
17.300	7.539	
17.400	-14.073	
17.500	13.808	
17.600	2.633	
17.700	0.721	
17.800	5.389	
17.900	2.944	
18.000	0.448	
18.100	-8.296	
18.200	3.094	
18.300	4.954	
18.400	8.564	
18.500	0.775	
18.600	3.630	
18.700	-1.443	
18.800	-1.518	
18.900	12.541	
19.000	6.947	
19.100	-0.456	
19.200	10.421	
19.300	2.834	
19.400	-0.388	
19.500	-2.537	
19.600	7.156	
19.700	7.027	
19.800	-17.547	
19.900	-3.253	
20.000	-8.355	
20.100	6.825	
20.200	-2.059	
20.300	4.245	
20.400	-5.189	
20.500	-4.445	
20.600	12.190	
20.700	13.715	
20.800	-2.103	
20.900	4.182	
21.000	3.327	
21.100	9.481	
21.200	-0.998	
21.300	2.010	
21.400	12.826	
21.500	-2.262	
21.600	-10.446	
21.700	4.950	
21.800	2.084	
21.900	-10.522	
22.000	4.984	
22.100	1.369	
22.200	5.718	
22.300	-1.010	
22.400	3.898	
22.500	-5.359	
22.600	-11.016	
22.700	-10.078	
22.800	2.887	
22.900	-5.000	
23.000	3.789	
23.100	1.939	
23.200	-7.112	
23.300	0.145	
23.400	-2.998	
23.500	3.167	
23.600	-1.309	
23.700	9.957	
23.800	-16.000	
23.900	12.722	
24.000	-0.671	
24.100	-1.000	
24.200	4.681	
24.300	0.266	
24.400	-3.654	
24.500	5.061	
24.600	12.100	
24.700	-18.336	
24.800	3.888	
24.900	-0.717	
25.000	6.820	
25.100	-6.816	
25.200	-2.049	
25.300	-5.799	
25.400	14.228	
25.500	14.255	
25.600	9.569	
25.700	-7.042	
25.800	-8.225	
25.900	-12.373	
26.000	5.887	
26.100	5.293	
26.200	11.677	
26.300	-3.490	
26.400	6.516	
26.500	3.044	
26.600	-9.555	
26.700	-11.692	
26.800	15.284	
26.900	-4.488	
27.000	-3.205	
27.100	-4.617	
27.200	2.436	
27.300	-4.899	
27.400	7.452	
27.500	2.830	
27.600	-0.956	
27.700	-6.033	
27.800	-4.876	
27.900	3.959	
28.000	8.900	
28.100	-2.994	
28.200	1.861	
28.300	-16.474	
28.400	-0.517	
28.500	6.177	
28.600	3.851	
28.700	2.437	
28.800	6.837	
28.900	0.676	
29.000	9.341	
29.100	17.642	
29.200	-6.018	
29.300	-5.221	
29.400	7.181	
29.500	4.686	
29.600	3.746	
29.700	10.571	
29.800	14.975	
29.900	25.766	
30.000	20.928	
30.100	37.267	
30.200	31.724	
30.300	49.554	
30.400	46.260	
30.500	51.087	
30.600	61.993	
30.700	60.072	
30.800	70.109	
30.900	62.791	
31.000	52.920	
31.100	77.446	
31.200	65.761	
31.300	63.554	
31.400	56.511	
31.500	62.735	
31.600	80.934	
31.700	63.896	
31.800	68.020	
31.900	59.048	
32.000	49.694	
32.100	57.836	
32.200	80.831	
32.300	54.011	
32.400	43.012	
32.500	64.867	
32.600	59.095	
32.700	55.864	
32.800	60.098	
32.900	43.244	
33.000	40.467	
33.100	48.544	
33.200	52.414	
33.300	43.716	
33.400	46.875	
33.500	38.525	
33.600	41.692	
33.700	48.670	
33.800	54.483	
33.900	37.178	
34.000	52.831	
34.100	45.990	
34.200	55.804	
34.300	57.794	
34.400	63.468	
34.500	40.099	
34.600	41.912	
34.700	53.761	
34.800	56.205	
34.900	70.740	
35.000	64.962	
35.100	77.063	
35.200	72.727	
35.300	47.355	
35.400	65.797	
35.500	73.011	
35.600	66.192	
35.700	73.484	
35.800	76.189	
35.900	85.408	
36.000	76.342	
36.100	80.416	
36.200	69.992	
36.300	84.013	
36.400	77.460	
36.500	88.299	
36.600	83.071	
36.700	88.055	
36.800	83.635	
36.900	65.206	
37.000	101.496	
37.100	75.633	
37.200	107.990	
37.300	87.903	
37.400	90.233	
37.500	79.291	
37.600	86.470	
37.700	91.732	
37.800	92.509	
37.900	94.139	
38.000	98.725	
38.100	81.240	
38.200	98.323	
38.300	87.147	
38.400	110.074	
38.500	110.208	
38.600	102.554	
38.700	95.722	
38.800	90.237	
38.900	85.712	
39.000	107.553	
39.100	92.742	
39.200	106.197	
39.300	97.773	
39.400	98.058	
39.500	96.543	
39.600	93.206	
39.700	89.430	
39.800	92.676	
39.900	89.737	
40.000	114.371	
40.100	91.456	
40.200	81.071	
40.300	96.296	
40.400	92.003	
40.500	86.301	
40.600	90.057	
40.700	94.426	
40.800	95.188	
40.900	105.711	
41.000	86.548	
41.100	87.386	
41.200	88.599	
41.300	91.176	
41.400	91.713	
41.500	90.650	
41.600	101.814	
41.700	77.014	
41.800	92.499	
41.900	79.806	
42.000	92.588	
42.100	69.293	
42.200	80.988	
42.300	93.981	
42.400	80.301	
42.500	80.992	
42.600	78.969	
42.700	78.226	
42.800	74.347	
42.900	78.851	
43.000	75.365	
43.100	82.667	
43.200	64.004	
43.300	63.415	
43.400	75.799	
43.500	68.627	
43.600	65.966	
43.700	84.137	
43.800	62.913	
43.900	68.989	
44.000	82.967	
44.100	64.852	
44.200	72.108	
44.300	69.638	
44.400	65.472	
44.500	56.874	
44.600	70.691	
44.700	68.694	
44.800	64.656	
44.900	56.972	
45.000	51.352	
45.100	65.016	
45.200	45.496	
45.300	67.007	
45.400	78.627	
45.500	57.143	
45.600	61.514	
45.700	49.252	
45.800	53.861	
45.900	49.045	
46.000	69.395	
46.100	46.811	
46.200	51.636	
46.300	54.592	
46.400	37.703	
46.500	35.655	
46.600	47.115	
46.700	56.389	
46.800	40.566	
46.900	29.033	
47.000	52.477	
47.100	51.444	
47.200	40.988	
47.300	29.819	
47.400	34.497	
47.500	31.604	
47.600	48.811	
47.700	50.722	
47.800	46.458	
47.900	30.602	
48.000	30.450	
48.100	43.077	
48.200	55.159	
48.300	42.777	
48.400	34.215	
48.500	38.696	
48.600	39.185	
48.700	41.443	
48.800	26.540	
48.900	31.890	
49.000	24.974	
49.100	37.603	
49.200	35.409	
49.300	46.567	
49.400	33.631	
49.500	40.429	
49.600	28.817	
49.700	31.502	
49.800	40.149	
49.900	10.194	
50.000	32.930	
50.100	37.226	
50.200	18.132	
50.300	26.124	
50.400	28.264	
50.500	20.303	
50.600	34.969	
50.700	14.117	
50.800	29.779	
50.900	27.064	
51.000	42.883	
51.100	43.382	
51.200	21.757	
51.300	25.996	
51.400	8.588	
51.500	22.800	
51.600	31.396	
51.700	32.010	
51.800	34.137	
51.900	21.111	
52.000	19.966	
52.100	30.805	
52.200	30.348	
52.300	23.964	
52.400	35.285	
52.500	31.911	
52.600	22.184	
52.700	32.910	
52.800	32.897	
52.900	20.164	
53.000	26.932	
53.100	32.782	
53.200	30.734	
53.300	23.964	
53.400	27.654	
53.500	20.441	
53.600	21.064	
53.700	39.427	
53.800	25.967	
53.900	40.552	
54.000	11.842	
54.100	21.242	
54.200	23.505	
54.300	18.206	
54.400	26.320	
54.500	44.232	
54.600	19.318	
54.700	36.337	
54.800	30.534	
54.900	25.405	
55.000	35.865	
55.100	34.953	
55.200	40.920	
55.300	25.932	
55.400	24.354	
55.500	32.850	
55.600	33.160	
55.700	29.693	
55.800	35.363	
55.900	24.374	
56.000	27.588	
56.100	28.836	
56.200	32.995	
56.300	42.750	
56.400	28.474	
56.500	40.973	
56.600	34.428	
56.700	30.890	
56.800	17.222	
56.900	38.867	
57.000	28.109	
57.100	42.356	
57.200	34.819	
57.300	42.293	
57.400	30.214	
57.500	21.420	
57.600	30.769	
57.700	38.113	
57.800	37.184	
57.900	32.206	
58.000	26.617	
58.100	48.021	
58.200	29.789	
58.300	29.285	
58.400	36.848	
58.500	40.829	
58.600	28.469	
58.700	22.401	
58.800	34.453	
58.900	34.182	
59.000	29.133	
59.100	32.393	
59.200	33.789	
59.300	26.459	
59.400	41.216	
59.500	46.091	
59.600	36.663	
59.700	41.549	
59.800	40.304	
59.900	32.809	
60.000	26.150	
60.100	36.870	
60.200	50.096	
60.300	27.228	
60.400	42.254	
60.500	33.914	
60.600	37.739	
60.700	35.995	
60.800	27.470	
60.900	29.311	
61.000	26.309	
61.100	50.448	
61.200	38.437	
61.300	41.445	
61.400	44.929	
61.500	43.350	
61.600	21.517	
61.700	55.404	
61.800	40.366	
61.900	37.535	
62.000	28.486	
62.100	39.960	
62.200	41.460	
62.300	31.889	
62.400	39.942	
62.500	41.961	
62.600	46.738	
62.700	45.882	
62.800	36.809	
62.900	42.649	
63.000	33.678	
63.100	38.056	
63.200	46.640	
63.300	41.393	
63.400	49.807	
63.500	39.166	
63.600	32.785	
63.700	27.300	
63.800	51.804	
63.900	55.935	
64.000	35.622	
64.100	55.498	
64.200	32.779	
64.300	50.442	
64.400	48.874	
64.500	38.343	
64.600	48.151	
64.700	39.029	
64.800	46.551	
64.900	51.709	
65.000	51.547	
65.100	45.515	
65.200	35.633	
65.300	43.498	
65.400	46.087	
65.500	43.195	
65.600	46.013	
65.700	46.725	
65.800	55.996	
65.900	30.852	
66.000	48.467	
66.100	33.092	
66.200	43.617	
66.300	37.391	
66.400	52.869	
66.500	58.949	
66.600	42.024	
66.700	37.066	
66.800	54.926	
66.900	42.662	
67.000	53.808	
67.100	55.298	
67.200	47.248	
67.300	33.945	
67.400	61.304	
67.500	46.640	
67.600	31.831	
67.700	52.534	
67.800	57.046	
67.900	39.921	
68.000	41.889	
68.100	52.493	
68.200	52.732	
68.300	50.576	
68.400	59.208	
68.500	36.020	
68.600	40.962	
68.700	54.420	
68.800	68.331	
68.900	61.404	
69.000	53.089	
69.100	57.124	
69.200	39.444	
69.300	44.923	
69.400	40.680	
69.500	66.753	
69.600	50.978	
69.700	50.377	
69.800	53.974	
69.900	55.170	
70.000	52.713	
70.100	50.991	
70.200	57.138	
70.300	49.292	
70.400	38.067	
70.500	53.846	
70.600	55.874	
70.700	54.020	
70.800	63.022	
70.900	56.435	
71.000	41.340	
71.100	62.831	
71.200	42.059	
71.300	65.253	
71.400	55.612	
71.500	51.446	
71.600	64.569	
71.700	60.944	
71.800	56.239	
71.900	58.645	
72.000	54.456	
72.100	70.140	
72.200	50.890	
72.300	59.175	
72.400	63.679	
72.500	50.637	
72.600	66.029	
72.700	50.777	
72.800	57.077	
72.900	59.738	
73.000	81.347	
73.100	61.747	
73.200	44.936	
73.300	48.225	
73.400	76.430	
73.500	69.059	
73.600	75.081	
73.700	59.961	
73.800	67.501	
73.900	59.474	
74.000	67.747	
74.100	45.944	
74.200	80.388	
74.300	62.104	
74.400	67.766	
74.500	61.366	
74.600	64.607	
74.700	68.955	
74.800	54.338	
74.900	59.060	
75.000	54.631	
75.100	78.661	
75.200	66.601	
75.300	53.793	
75.400	60.771	
75.500	57.688	
75.600	63.933	
75.700	59.785	
75.800	69.303	
75.900	79.935	
76.000	76.837	
76.100	50.800	
76.200	55.481	
76.300	67.071	
76.400	66.107	
76.500	69.782	
76.600	77.455	
76.700	61.585	
76.800	65.411	
76.900	72.895	
77.000	69.705	
77.100	64.146	
77.200	65.956	
77.300	66.528	
77.400	72.867	
77.500	74.479	
77.600	70.898	
77.700	59.975	
77.800	77.377	
77.900	70.779	
78.000	66.588	
78.100	81.765	
78.200	64.212	
78.300	56.618	
78.400	63.309	
78.500	71.746	
78.600	52.831	
78.700	81.894	
78.800	72.489	
78.900	89.972	
79.000	64.757	
79.100	68.607	
79.200	76.748	
79.300	61.363	
79.400	65.678	
79.500	75.514	
79.600	70.416	
79.700	67.288	
79.800	68.492	
79.900	75.687	
80.000	72.200	
80.100	75.468	
80.200	74.728	
80.300	60.590	
80.400	63.249	
80.500	74.792	
80.600	57.340	
80.700	80.103	
80.800	85.846	
80.900	72.618	
81.000	65.584	
81.100	75.357	
81.200	79.775	
81.300	76.226	
81.400	68.096	
81.500	72.747	
81.600	84.865	
81.700	67.943	
81.800	59.043	
81.900	71.712	
82.000	72.263	
82.100	75.781	
82.200	77.479	
82.300	69.804	
82.400	71.242	
82.500	62.430	
82.600	91.352	
82.700	75.673	
82.800	78.471	
82.900	56.511	
83.000	76.297	
83.100	77.543	
83.200	78.037	
83.300	68.647	
83.400	80.333	
83.500	79.985	
83.600	81.822	
83.700	71.043	
83.800	78.201	
83.900	75.282	
84.000	80.242	
84.100	77.499	
84.200	51.674	
84.300	84.826	
84.400	72.504	
84.500	69.383	
84.600	79.626	
84.700	76.678	
84.800	76.259	
84.900	78.732	
85.000	68.159	
85.100	73.398	
85.200	77.116	
85.300	68.859	
85.400	89.368	
85.500	62.296	
85.600	78.984	
85.700	90.198	
85.800	70.619	
85.900	68.261	
86.000	76.912	
86.100	95.795	
86.200	78.676	
86.300	81.703	
86.400	81.604	
86.500	78.433	
86.600	82.802	
86.700	75.475	
86.800	78.766	
86.900	79.135	
87.000	91.862	
87.100	76.311	
87.200	97.742	
87.300	77.273	
87.400	73.964	
87.500	90.317	
87.600	75.406	
87.700	71.408	
87.800	77.331	
87.900	76.787	
88.000	72.907	
88.100	83.409	
88.200	76.214	
88.300	91.922	
88.400	92.286	
88.500	72.085	
88.600	82.553	
88.700	77.230	
88.800	86.082	
88.900	87.816	
89.000	78.627	
89.100	67.484	
89.200	81.576	
89.300	86.144	
89.400	76.337	
89.500	90.704	
89.600	80.362	
89.700	71.264	
89.800	60.400	
89.900	54.911	
90.000	58.552	
90.100	45.187	
90.200	33.464	
90.300	18.202	
90.400	21.564	
90.500	19.362	
90.600	-6.292	
90.700	-19.955	
90.800	-8.432	
90.900	-20.724	
91.000	-44.156	
91.100	-59.323	
91.200	-54.096	
91.300	-54.729	
91.400	-58.896	
91.500	-76.048	
91.600	-76.366	
91.700	-73.563	
91.800	-84.771	
91.900	-79.061	
92.000	-83.406	
92.100	-114.007	
92.200	-97.703	
92.300	-101.778	
92.400	-105.833	
92.500	-130.608	
92.600	-115.869	
92.700	-104.464	
92.800	-111.884	
92.900	-121.955	
93.000	-98.440	
93.100	-131.430	
93.200	-132.923	
93.300	-96.702	
93.400	-120.448	
93.500	-143.467	
93.600	-126.269	
93.700	-119.225	
93.800	-119.228	
93.900	-114.740	
94.000	-124.238	
94.100	-133.248	
94.200	-129.615	
94.300	-116.271	
94.400	-134.489	
94.500	-127.988	
94.600	-116.712	
94.700	-122.460	
94.800	-116.546	
94.900	-116.711	
95.000	-134.797	
95.100	-89.461	
95.200	-112.473	
95.300	-110.619	
95.400	-117.340	
95.500	-111.725	
95.600	-118.291	
95.700	-105.716	
95.800	-104.699	
95.900	-104.726	
96.000	-107.337	
96.100	-100.301	
96.200	-99.924	
96.300	-88.113	
96.400	-98.849	
96.500	-99.500	
96.600	-91.019	
96.700	-91.760	
96.800	-97.922	
96.900	-87.560	
97.000	-83.270	
97.100	-84.353	
97.200	-77.028	
97.300	-78.130	
97.400	-107.071	
97.500	-79.308	
97.600	-85.537	
97.700	-83.952	
97.800	-75.853	
97.900	-77.171	
98.000	-76.791	
98.100	-78.660	
98.200	-61.401	
98.300	-69.529	
98.400	-79.755	
98.500	-62.115	
98.600	-67.257	
98.700	-78.129	
98.800	-63.256	
98.900	-56.315	
99.000	-60.137	
99.100	-76.815	
99.200	-63.067	
99.300	-51.923	
99.400	-65.415	
99.500	-48.924	
99.600	-53.104	
99.700	-66.096	
99.800	-48.225	
99.900	-48.742	
100.000	-41.541	
100.100	-58.550	
100.200	-37.966	
100.300	-43.462	
100.400	-44.507	
100.500	-31.253	
100.600	-46.841	
100.700	-47.081	
100.800	-43.350	
100.900	-33.785	
101.000	-52.715	
101.100	-48.597	
101.200	-53.885	
101.300	-32.447	
101.400	-31.258	
101.500	-44.191	
101.600	-41.563	
101.700	-40.079	
101.800	-28.532	
101.900	-38.442	
102.000	-36.323	
102.100	-29.309	
102.200	-26.962	
102.300	-46.475	
102.400	-36.901	
102.500	-27.361	
102.600	-39.612	
102.700	-29.829	
102.800	-37.879	
102.900	-25.922	
103.000	-26.650	
103.100	-28.714	
103.200	-23.341	
103.300	-39.013	
103.400	-35.039	
103.500	-18.625	
103.600	-34.730	
103.700	-35.180	
103.800	-25.259	
103.900	-34.191	
104.000	-29.110	
104.100	-20.459	
104.200	-31.654	
104.300	-9.240	
104.400	-18.157	
104.500	-34.594	
104.600	-18.173	
104.700	-22.482	
104.800	-22.859	
104.900	-14.104	
105.000	-9.738	
105.100	-42.307	
105.200	-11.399	
105.300	-36.577	
105.400	-16.850	
105.500	-19.548	
105.600	-9.247	
105.700	-23.502	
105.800	-31.429	
105.900	-31.263	
106.000	-25.345	
106.100	-18.751	
106.200	-9.729	
106.300	-25.573	
106.400	-24.818	
106.500	-28.158	
106.600	-33.311	
106.700	-25.455	
106.800	-17.574	
106.900	-22.606	
107.000	-20.301	
107.100	-8.988	
107.200	-27.448	
107.300	-4.992	
107.400	-20.207	
107.500	-17.881	
107.600	-21.930	
107.700	-22.686	
107.800	-28.657	
107.900	-12.698	
108.000	-16.953	
108.100	-18.602	
108.200	-19.255	
108.300	-18.950	
108.400	-28.789	
108.500	-16.076	
108.600	-25.239	
108.700	-23.543	
108.800	-32.562	
108.900	-18.924	
109.000	-17.619	
109.100	-17.132	
109.200	-5.392	
109.300	-20.181	
109.400	-11.288	
109.500	-23.787	
109.600	-8.794	
109.700	-19.592	
109.800	-17.297	
109.900	-28.510	
110.000	-18.587	
110.100	-8.591	
110.200	-40.565	
110.300	-8.037	
110.400	-28.300	
110.500	-12.034	
110.600	-9.375	
110.700	-25.753	
110.800	-5.337	
110.900	-22.640	
111.000	-15.671	
111.100	-13.052	
111.200	-13.704	
111.300	-9.857	
111.400	-15.715	
111.500	-8.774	
111.600	-30.012	
111.700	-7.607	
111.800	-14.279	
111.900	-22.601	
112.000	-5.898	
112.100	-15.672	
112.200	-24.742	
112.300	-28.519	
112.400	-12.931	
112.500	-18.336	
112.600	-31.177	
112.700	-12.638	
112.800	-16.001	
112.900	-16.483	
113.000	-19.918	
113.100	-8.647	
113.200	-20.291	
113.300	-10.512	
113.400	-22.355	
113.500	-16.367	
113.600	-14.133	
113.700	-3.616	
113.800	-26.533	
113.900	-26.173	
114.000	-18.182	
114.100	-25.649	
114.200	-14.985	
114.300	-20.241	
114.400	-22.052	
114.500	-23.720	
114.600	-21.639	
114.700	-0.614	
114.800	-13.762	
114.900	-17.104	
115.000	-8.864	
115.100	-14.614	
115.200	-15.275	
115.300	-12.224	
115.400	-17.710	
115.500	-14.649	
115.600	-34.253	
115.700	-3.124	
115.800	-9.339	
115.900	-25.602	
116.000	-10.955	
116.100	-9.801	
116.200	-22.379	
116.300	-16.747	
116.400	1.231	
116.500	-14.678	
116.600	-6.017	
116.700	-32.318	
116.800	-5.227	
116.900	-16.432	
117.000	-10.885	
117.100	-5.022	
117.200	-14.395	
117.300	-16.140	
117.400	-19.981	
117.500	-1.244	
117.600	-24.970	
117.700	-8.123	
117.800	-18.847	
117.900	-21.736	
118.000	-22.001	
118.100	6.807	
118.200	-22.807	
118.300	-3.936	
118.400	-13.713	
118.500	-15.176	
118.600	-24.743	
118.700	-13.162	
118.800	0.460	
118.900	-18.159	
119.000	-8.800	
119.100	-16.052	
119.200	-10.418	
119.300	-19.320	
119.400	-14.290	
119.500	-7.508	
119.600	-18.168	
119.700	-13.987	
119.800	-15.240	
119.900	-2.850	
120.000	-19.738	
120.100	-16.986	
120.200	10.540	
120.300	-17.115	
120.400	-14.290	
120.500	-3.856	
120.600	-10.538	
120.700	-18.907	
120.800	-36.167	
120.900	-13.278	
121.000	1.718	
121.100	-9.785	
121.200	-14.734	
121.300	-6.853	
121.400	-20.963	
121.500	-17.037	
121.600	-14.470	
121.700	-15.348	
121.800	-25.721	
121.900	-8.851	
122.000	-6.372	
122.100	-24.475	
122.200	-9.081	
122.300	-7.556	
122.400	-2.536	
122.500	-8.938	
122.600	-16.485	
122.700	-22.130	
122.800	-29.897	
122.900	-4.979	
123.000	-9.668	
123.100	-21.692	
123.200	-0.419	
123.300	-9.210	
123.400	-22.512	
123.500	-10.057	
123.600	0.308	
123.700	-5.375	
123.800	-4.987	
123.900	-7.736	
124.000	-16.046	
124.100	-1.833	
124.200	-5.126	
124.300	-28.650	
124.400	-12.340	
124.500	-12.778	
124.600	-24.017	
124.700	-6.091	
124.800	-8.556	
124.900	-0.552	
125.000	-7.294	
125.100	-20.222	
125.200	-0.424	
125.300	-11.197	
125.400	-22.598	
125.500	-13.541	
125.600	9.385	
125.700	-3.848	
125.800	-15.907	
125.900	-6.759	
126.000	-22.359	
126.100	5.120	
126.200	-8.696	
126.300	-2.165	
126.400	-16.175	
126.500	-10.720	
126.600	-34.864	
126.700	0.039	
126.800	-14.553	
126.900	-6.806	
127.000	-1.204	
127.100	-26.072	
127.200	0.279	
127.300	1.662	
127.400	-7.944	
127.500	-7.204	
127.600	-14.231	
127.700	-14.523	
127.800	-11.237	
127.900	-2.153	
128.000	-9.044	
128.100	-21.044	
128.200	-8.627	
128.300	-1.958	
128.400	-15.812	
128.500	-8.072	
128.600	0.124	
128.700	-30.824	
128.800	-5.322	
128.900	5.113	
129.000	-8.827	
129.100	-10.421	
129.200	-3.771	
129.300	-4.207	
129.400	-8.768	
129.500	-3.273	
129.600	-25.311	
129.700	-6.997	
129.800	-8.944	
129.900	-11.847	
130.000	-17.437	
130.100	-18.933	
130.200	-22.127	
130.300	-9.915	
130.400	8.607	
130.500	-12.379	
130.600	-8.694	
130.700	-20.902	
130.800	-14.674	
130.900	-5.609	
131.000	-13.479	
131.100	-8.035	
131.200	-22.373	
131.300	-5.188	
131.400	-0.702	
131.500	-24.075	
131.600	-7.377	
131.700	-4.367	
131.800	-9.291	
131.900	-16.674	
132.000	-14.368	
132.100	-0.358	
132.200	-6.687	
132.300	4.305	
132.400	-11.282	
132.500	-12.110	
132.600	-6.938	
132.700	-10.962	
132.800	-3.408	
132.900	-1.038	
133.000	-17.416	
133.100	2.911	
133.200	-12.856	
133.300	-17.183	
133.400	-8.570	
133.500	-11.517	
133.600	-7.502	
133.700	-16.005	
133.800	-8.030	
133.900	-12.999	
134.000	-8.907	
134.100	-10.930	
134.200	-10.256	
134.300	-2.738	
134.400	-9.201	
134.500	-18.817	
134.600	-4.469	
134.700	-18.221	
134.800	-21.313	
134.900	-5.277	
135.000	-9.285	
135.100	-10.520	
135.200	-7.121	
135.300	8.915	
135.400	-9.581	
135.500	-12.618	
135.600	-4.543	
135.700	-0.633	
135.800	-8.687	
135.900	-9.474	
136.000	-5.860	
136.100	5.334	
136.200	-7.683	
136.300	-21.231	
136.400	-9.806	
136.500	14.154	
136.600	-4.774	
136.700	-9.504	
136.800	-14.452	
136.900	-12.794	
137.000	-10.055	
137.100	-3.291	
137.200	-18.154	
137.300	-8.439	
137.400	0.527	
137.500	-1.643	
137.600	-7.271	
137.700	-15.898	
137.800	-22.403	
137.900	-20.712	
138.000	-14.155	
138.100	-10.536	
138.200	-10.738	
138.300	4.086	
138.400	-9.739	
138.500	-4.031	
138.600	-30.498	
138.700	-7.689	
138.800	-6.859	
138.900	-15.600	
139.000	-8.054	
139.100	-10.985	
139.200	-8.863	
139.300	-6.140	
139.400	0.547	
139.500	-4.827	
139.600	-3.018	
139.700	-13.777	
139.800	-2.938	
139.900	2.648	
140.000	-9.793	
140.100	-3.492	
140.200	-13.878	
140.300	-2.914	
140.400	12.553	
140.500	-7.671	
140.600	-14.317	
140.700	-14.376	
140.800	-8.048	
140.900	-11.852	
141.000	-3.410	
141.100	-5.103	
141.200	-4.554	
141.300	-10.569	
141.400	-4.979	
141.500	-4.248	
141.600	-3.644	
141.700	-9.975	
141.800	-0.909	
141.900	-16.895	
142.000	-12.820	
142.100	-13.189	
142.200	2.218	
142.300	-8.697	
142.400	-22.965	
142.500	-22.202	
142.600	-2.200	
142.700	-8.117	
142.800	-5.257	
142.900	-11.061	
143.000	-5.809	
143.100	-3.552	
143.200	-24.337	
143.300	-3.955	
143.400	-14.240	
143.500	-14.257	
143.600	-13.215	
143.700	-6.785	
143.800	-7.871	
143.900	-8.649	
144.000	6.932	
144.100	-3.946	
144.200	-13.235	
144.300	-8.255	
144.400	-10.091	
144.500	-17.310	
144.600	-1.138	
144.700	-7.242	
144.800	-7.211	
144.900	-8.416	
145.000	-4.979	
145.100	-10.653	
145.200	5.752	
145.300	5.176	
145.400	-4.781	
145.500	-10.538	
145.600	3.850	
145.700	-1.894	
145.800	-4.017	
145.900	-4.372	
146.000	-10.829	
146.100	-12.785	
146.200	-3.406	
146.300	-0.128	
146.400	-1.294	
146.500	-11.059	
146.600	-12.745	
146.700	-5.139	
146.800	-11.024	
146.900	-6.594	
147.000	-16.689	
147.100	10.441	
147.200	1.321	
147.300	-5.657	
147.400	-6.632	
147.500	-8.277	
147.600	-16.633	
147.700	-15.004	
147.800	-1.711	
147.900	-18.734	
148.000	-3.651	
148.100	-3.102	
148.200	2.172	
148.300	-11.113	
148.400	-2.756	
148.500	-5.990	
148.600	-10.216	
148.700	-1.109	
148.800	-20.121	
148.900	9.771	
149.000	-5.192	
149.100	-17.722	
149.200	8.654	
149.300	-5.260	
149.400	-14.633	
149.500	6.202	
149.600	-19.685	
149.700	-2.032	
149.800	-17.280	
149.900	7.122	
150.000	-16.039	
150.100	-0.354	
150.200	4.441	
150.300	-16.712	
150.400	-4.553	
150.500	-10.350	
150.600	-4.559	
150.700	-17.711	
150.800	-10.619	
150.900	10.551	
151.000	-0.326	
151.100	-8.836	
151.200	-3.935	
151.300	-10.473	
151.400	5.086	
151.500	-2.456	
151.600	-3.544	
151.700	-12.172	
151.800	-10.307	
151.900	11.563	
152.000	-9.715	
152.100	-5.623	
152.200	-19.224	
152.300	3.024	
152.400	-17.499	
152.500	1.553	
152.600	-11.122	
152.700	-11.432	
152.800	0.140	
152.900	0.648	
153.000	-5.872	
153.100	-10.585	
153.200	-12.600	
153.300	8.403	
153.400	-5.433	
153.500	-10.087	
153.600	-19.017	
153.700	-12.134	
153.800	-6.431	
153.900	-26.704	
154.000	1.047	
154.100	-9.905	
154.200	-6.948	
154.300	2.935	
154.400	-3.072	
154.500	-12.999	
154.600	7.668	
154.700	-2.201	
154.800	-8.254	
154.900	-17.452	
155.000	3.381	
155.100	-31.698	
155.200	0.947	
155.300	-9.363	
155.400	-3.798	
155.500	15.838	
155.600	-7.268	
155.700	-8.285	
155.800	-6.410	
155.900	-12.280	
156.000	13.335	
156.100	-5.572	
156.200	0.596	
156.300	-9.973	
156.400	6.240	
156.500	0.337	
156.600	-10.102	
156.700	-5.253	
156.800	-2.605	
156.900	-23.325	
157.000	11.764	
157.100	-4.098	
157.200	-11.760	
157.300	-15.439	
157.400	-9.217	
157.500	-3.986	
157.600	11.279	
157.700	-15.996	
157.800	1.252	
157.900	1.832	
158.000	-16.505	
158.100	-5.547	
158.200	7.064	
158.300	-5.992	
158.400	-4.264	
158.500	-19.837	
158.600	1.834	
158.700	-13.468	
158.800	-17.672	
158.900	11.268	
159.000	-7.439	
159.100	-2.300	
159.200	-13.619	
159.300	6.313	
159.400	-4.119	
159.500	-20.568	
159.600	-1.043	
159.700	8.696	
159.800	-15.862	
159.900	-0.598	
160.000	-6.610	
160.100	-2.343	
160.200	9.877	
160.300	-8.334	
160.400	-3.817	
160.500	-9.855	
160.600	3.808	
160.700	-10.596	
160.800	-12.175	
160.900	-15.239	
161.000	2.644	
161.100	4.677	
161.200	-14.293	
161.300	-9.749	
161.400	-8.046	
161.500	-10.495	
161.600	5.117	
161.700	-26.979	
161.800	-37.314	
161.900	-2.253	
162.000	17.901	
162.100	12.623	
162.200	-12.500	
162.300	-4.708	
162.400	-3.121	
162.500	-12.759	
162.600	-13.192	
162.700	9.985	
162.800	-11.419	
162.900	-2.315	
163.000	3.120	
163.100	-5.717	
163.200	-4.542	
163.300	4.655	
163.400	-11.472	
163.500	-2.230	
163.600	-13.988	
163.700	-13.815	
163.800	-12.846	
163.900	-7.720	
164.000	5.824	
164.100	-9.288	
164.200	-7.088	
164.300	-7.084	
164.400	-12.177	
164.500	4.642	
164.600	5.848	
164.700	-3.270	
164.800	-3.118	
164.900	-13.232	
165.000	-7.836	
165.100	-6.524	
165.200	14.761	
165.300	-2.565	
165.400	6.573	
165.500	-3.500	
165.600	-23.114	
165.700	-2.440	
165.800	-11.124	
165.900	0.736	
166.000	2.693	
166.100	-19.629	
166.200	-8.685	
166.300	-1.468	
166.400	-4.400	
166.500	-2.481	
166.600	-7.371	
166.700	9.967	
166.800	-6.288	
166.900	-11.814	
167.000	-11.104	
167.100	4.585	
167.200	-16.136	
167.300	8.304	
167.400	-19.586	
167.500	0.384	
167.600	-4.372	
167.700	-1.291	
167.800	-0.857	
167.900	-30.182	
168.000	14.965	
168.100	-2.025	
168.200	-5.264	
168.300	-4.892	
168.400	-1.230	
168.500	-1.894	
168.600	-3.145	
168.700	-29.966	
168.800	1.051	
168.900	0.684	
169.000	2.100	
169.100	-1.849	
169.200	7.078	
169.300	-10.043	
169.400	5.411	
169.500	-13.099	
169.600	6.698	
169.700	5.453	
169.800	-7.553	
169.900	0.551	
170.000	-7.450	
170.100	-8.972	
170.200	-5.314	
170.300	-7.612	
170.400	-2.746	
170.500	-20.008	
170.600	0.844	
170.700	-1.627	
170.800	-2.128	
170.900	-7.428	
171.000	-3.224	
171.100	2.746	
171.200	4.043	
171.300	13.184	
171.400	-6.063	
171.500	-9.700	
171.600	0.433	
171.700	-0.279	
171.800	-9.244	
171.900	-4.009	
172.000	-5.766	
172.100	-6.726	
172.200	-2.930	
172.300	-1.783	
172.400	-6.905	
172.500	-19.042	
172.600	3.627	
172.700	-13.551	
172.800	4.395	
172.900	-10.012	
173.000	-13.299	
173.100	-2.557	
173.200	-3.345	
173.300	-12.313	
173.400	1.470	
173.500	-13.978	
173.600	12.270	
173.700	-4.058	
173.800	2.567	
173.900	-17.937	
174.000	-8.020	
174.100	-18.103	
174.200	7.943	
174.300	-3.502	
174.400	9.303	
174.500	-14.301	
174.600	-2.131	
174.700	-6.972	
174.800	-6.294	
174.900	-8.766	
175.000	-14.801	
175.100	-3.463	
175.200	1.664	
175.300	-4.098	
175.400	-2.195	
175.500	-15.364	
175.600	11.639	
175.700	-6.703	
175.800	-2.338	
175.900	-15.981	
176.000	1.317	
176.100	-0.771	
176.200	-7.491	
176.300	-13.089	
176.400	-2.195	
176.500	-6.226	
176.600	6.458	
176.700	-6.535	
176.800	-20.461	
176.900	-6.749	
177.000	-2.857	
177.100	-5.559	
177.200	0.452	
177.300	-5.620	
177.400	-13.349	
177.500	-6.590	
177.600	-2.898	
177.700	1.201	
177.800	-6.520	
177.900	2.870	
178.000	-6.123	
178.100	-0.963	
178.200	-8.292	
178.300	-2.628	
178.400	-5.995	
178.500	8.650	
178.600	-5.984	
178.700	-0.148	
178.800	1.295	
178.900	-9.597	
179.000	2.394	
179.100	-10.732	
179.200	-4.513	
179.300	-35.943	
179.400	-2.401	
179.500	-7.831	
179.600	-5.627	
179.700	-0.172	
179.800	12.593	
179.900	18.915	
180.000	22.194	
180.100	42.002	
180.200	29.729	
180.300	54.860	
180.400	67.450	
180.500	59.609	
180.600	56.845	
180.700	81.141	
180.800	87.006	
180.900	75.257	
181.000	76.884	
181.100	75.954	
181.200	48.000	
181.300	77.429	
181.400	76.206	
181.500	78.320	
181.600	81.807	
181.700	66.857	
181.800	83.944	
181.900	70.818	
182.000	79.464	
182.100	77.564	
182.200	67.141	
182.300	91.302	
182.400	75.917	
182.500	58.272	
182.600	83.980	
182.700	66.588	
182.800	84.419	
182.900	61.199	
183.000	60.040	
183.100	78.698	
183.200	63.098	
183.300	68.886	
183.400	81.219	
183.500	74.451	
183.600	73.735	
183.700	69.514	
183.800	59.501	
183.900	82.348	
184.000	83.908	
184.100	74.505	
184.200	80.964	
184.300	71.701	
184.400	82.318	
184.500	79.899	
184.600	88.332	
184.700	89.507	
184.800	81.070	
184.900	102.052	
185.000	101.521	
185.100	90.245	
185.200	88.979	
185.300	100.329	
185.400	103.682	
185.500	102.963	
185.600	99.445	
185.700	114.755	
185.800	103.347	
185.900	89.670	
186.000	97.231	
186.100	113.052	
186.200	92.281	
186.300	85.653	
186.400	109.987	
186.500	94.948	
186.600	114.389	
186.700	104.402	
186.800	115.627	
186.900	100.744	
187.000	105.866	
187.100	106.371	
187.200	83.799	
187.300	116.122	
187.400	95.187	
187.500	98.047	
187.600	102.746	
187.700	103.059	
187.800	109.084	
187.900	103.763	
188.000	108.772	
188.100	105.022	
188.200	95.554	
188.300	99.918	
188.400	120.122	
188.500	103.143	
188.600	99.479	
188.700	109.304	
188.800	100.424	
188.900	111.926	
189.000	101.210	
189.100	104.905	
189.200	94.105	
189.300	110.839	
189.400	98.987	
189.500	106.206	
189.600	102.167	
189.700	104.882	
189.800	91.380	
189.900	102.444	
190.000	112.426	
190.100	97.882	
190.200	90.349	
190.300	110.663	
190.400	101.870	
190.500	98.960	
190.600	109.737	
190.700	111.635	
190.800	97.776	
190.900	95.010	
191.000	113.083	
191.100	104.922	
191.200	92.351	
191.300	97.708	
191.400	108.939	
191.500	106.041	
191.600	99.726	
191.700	99.608	
191.800	90.141	
191.900	92.298	
192.000	100.298	
192.100	111.002	
192.200	115.727	
192.300	94.112	
192.400	97.600	
192.500	101.922	
192.600	95.614	
192.700	97.737	
192.800	89.618	
192.900	100.719	
193.000	96.954	
193.100	101.204	
193.200	103.668	
193.300	96.014	
193.400	100.470	
193.500	94.981	
193.600	99.394	
193.700	92.772	
193.800	102.730	
193.900	87.381	
194.000	77.286	
194.100	108.377	
194.200	89.692	
194.300	92.271	
194.400	90.849	
194.500	100.490	
194.600	88.568	
194.700	89.343	
194.800	91.086	
194.900	106.039	
195.000	82.236	
195.100	85.642	
195.200	78.554	
195.300	93.711	
195.400	78.685	
195.500	85.089	
195.600	89.228	
195.700	98.727	
195.800	83.397	
195.900	81.293	
196.000	88.292	
196.100	84.518	
196.200	91.364	
196.300	87.385	
196.400	89.264	
196.500	90.821	
196.600	72.094	
196.700	93.453	
196.800	86.450	
196.900	83.349	
197.000	71.467	
197.100	84.565	
197.200	78.022	
197.300	86.559	
197.400	80.318	
197.500	86.684	
197.600	69.614	
197.700	87.524	
197.800	77.444	
197.900	73.898	
198.000	96.662	
198.100	85.134	
198.200	85.835	
198.300	79.703	
198.400	85.279	
198.500	71.853	
198.600	68.607	
198.700	82.098	
198.800	76.708	
198.900	83.796	
199.000	80.450	
199.100	68.244	
199.200	78.270	
199.300	77.158	
199.400	73.154	
199.500	64.224	
199.600	76.347	
199.700	73.298	
199.800	74.985	
199.900	76.108	
200.000	85.585	
200.100	87.981	
200.200	78.289	
200.300	65.858	
200.400	64.354	
200.500	82.070	
200.600	61.845	
200.700	87.445	
200.800	72.698	
200.900	75.011	
201.000	65.272	
201.100	79.992	
201.200	73.211	
201.300	82.756	
201.400	71.167	
201.500	72.013	
201.600	55.844	
201.700	62.707	
201.800	64.088	
201.900	77.360	
202.000	73.343	
202.100	66.226	
202.200	63.250	
202.300	74.547	
202.400	59.272	
202.500	71.998	
202.600	71.955	
202.700	66.893	
202.800	68.882	
202.900	69.459	
203.000	72.678	
203.100	67.226	
203.200	75.159	
203.300	79.308	
203.400	57.652	
203.500	74.735	
203.600	60.868	
203.700	68.950	
203.800	56.587	
203.900	62.254	
204.000	63.902	
204.100	54.445	
204.200	61.566	
204.300	71.275	
204.400	64.415	
204.500	81.674	
204.600	61.655	
204.700	74.890	
204.800	57.789	
204.900	54.565	
205.000	53.489	
205.100	77.042	
205.200	81.805	
205.300	68.689	
205.400	60.323	
205.500	69.078	
205.600	69.579	
205.700	60.913	
205.800	71.607	
205.900	62.131	
206.000	50.060	
206.100	58.671	
206.200	81.436	
206.300	50.888	
206.400	76.059	
206.500	76.898	
206.600	73.171	
206.700	70.359	
206.800	54.408	
206.900	66.405	
207.000	68.386	
207.100	63.484	
207.200	51.706	
207.300	75.195	
207.400	46.841	
207.500	71.763	
207.600	66.000	
207.700	51.217	
207.800	86.165	
207.900	70.713	
208.000	63.364	
208.100	79.079	
208.200	81.654	
208.300	63.444	
208.400	58.654	
208.500	83.026	
208.600	86.191	
208.700	73.890	
208.800	55.114	
208.900	82.439	
209.000	58.626	
209.100	72.379	
209.200	64.661	
209.300	81.692	
209.400	70.773	
209.500	49.809	
209.600	76.299	
209.700	79.844	
209.800	79.559	
209.900	78.246	
210.000	67.487	
210.100	79.670	
210.200	75.202	
210.300	75.759	
210.400	84.915	
210.500	64.298	
210.600	72.560	
210.700	72.720	
210.800	65.940	
210.900	62.471	
211.000	79.299	
211.100	78.679	
211.200	70.346	
211.300	68.128	
211.400	80.872	
211.500	57.609	
211.600	72.909	
211.700	85.660	
211.800	78.646	
211.900	60.875	
212.000	81.927	
212.100	71.936	
212.200	62.996	
212.300	91.878	
212.400	80.958	
212.500	76.441	
212.600	53.949	
212.700	79.284	
212.800	75.850	
212.900	82.065	
213.000	64.125	
213.100	65.349	
213.200	76.325	
213.300	87.353	
213.400	91.613	
213.500	76.307	
213.600	78.752	
213.700	81.743	
213.800	73.213	
213.900	75.292	
214.000	79.687	
214.100	74.227	
214.200	85.212	
214.300	80.226	
214.400	76.874	
214.500	79.757	
214.600	84.971	
214.700	73.527	
214.800	87.864	
214.900	84.215	
215.000	81.384	
215.100	76.405	
215.200	75.024	
215.300	78.117	
215.400	80.519	
215.500	87.457	
215.600	68.463	
215.700	82.829	
215.800	89.882	
215.900	82.346	
216.000	79.984	
216.100	80.035	
216.200	92.206	
216.300	85.563	
216.400	88.827	
216.500	78.788	
216.600	77.723	
216.700	82.353	
216.800	87.464	
216.900	84.179	
217.000	85.630	
217.100	83.065	
217.200	91.482	
217.300	83.316	
217.400	83.308	
217.500	95.479	
217.600	85.588	
217.700	103.705	
217.800	83.147	
217.900	86.258	
218.000	92.206	
218.100	86.340	
218.200	80.543	
218.300	103.252	
218.400	86.150	
218.500	76.383	
218.600	87.178	
218.700	89.049	
218.800	87.608	
218.900	81.480	
219.000	92.678	
219.100	91.790	
219.200	83.878	
219.300	91.866	
219.400	95.532	
219.500	84.884	
219.600	92.340	
219.700	89.699	
219.800	91.888	
219.900	73.169	
220.000	97.265	
220.100	87.363	
220.200	89.108	
220.300	92.539	
220.400	101.795	
220.500	90.885	
220.600	84.767	
220.700	102.530	
220.800	84.944	
220.900	87.573	
221.000	81.319	
221.100	98.143	
221.200	83.632	
221.300	100.687	
221.400	94.852	
221.500	87.668	
221.600	96.882	
221.700	103.813	
221.800	86.582	
221.900	94.012	
222.000	102.931	
222.100	94.407	
222.200	99.420	
222.300	105.795	
222.400	95.092	
222.500	93.715	
222.600	94.307	
222.700	113.011	
222.800	91.076	
222.900	82.563	
223.000	83.583	
223.100	101.201	
223.200	87.140	
223.300	93.122	
223.400	98.505	
223.500	86.826	
223.600	101.556	
223.700	96.138	
223.800	115.484	
223.900	88.670	
224.000	104.529	
224.100	92.329	
224.200	102.488	
224.300	97.372	
224.400	95.559	
224.500	98.695	
224.600	98.883	
224.700	90.040	
224.800	104.709	
224.900	91.393	
225.000	103.461	
225.100	100.301	
225.200	104.889	
225.300	96.599	
225.400	94.062	
225.500	113.698	
225.600	100.661	
225.700	86.089	
225.800	106.011	
225.900	92.751	
226.000	99.954	
226.100	98.222	
226.200	102.086	
226.300	95.504	
226.400	101.271	
226.500	101.067	
226.600	101.732	
226.700	90.352	
226.800	88.993	
226.900	107.251	
227.000	113.216	
227.100	97.839	
227.200	94.429	
227.300	104.939	
227.400	108.317	
227.500	101.536	
227.600	111.577	
227.700	105.134	
227.800	110.343	
227.900	97.252	
228.000	99.875	
228.100	105.657	
228.200	104.527	
228.300	103.984	
228.400	90.444	
228.500	100.166	
228.600	108.537	
228.700	100.314	
228.800	107.765	
228.900	90.333	
229.000	111.267	
229.100	103.153	
229.200	100.028	
229.300	103.126	
229.400	88.961	
229.500	95.216	
229.600	94.051	
229.700	105.273	
229.800	100.509	
229.900	88.789	
230.000	106.411	
230.100	105.727	
230.200	109.357	
230.300	111.628	
230.400	109.011	
230.500	103.856	
230.600	103.815	
230.700	103.167	
230.800	115.635	
230.900	107.290	
231.000	108.116	
231.100	101.266	
231.200	103.838	
231.300	92.608	
231.400	87.698	
231.500	107.728	
231.600	98.992	
231.700	106.956	
231.800	95.200	
231.900	96.909	
232.000	93.338	
232.100	102.789	
232.200	98.100	
232.300	105.274	
232.400	103.757	
232.500	107.033	
232.600	105.063	
232.700	99.722	
232.800	102.508	
232.900	91.574	
233.000	99.385	
233.100	113.900	
233.200	104.094	
233.300	98.657	
233.400	100.657	
233.500	103.344	
233.600	97.351	
233.700	92.060	
233.800	107.933	
233.900	97.814	
234.000	108.592	
234.100	105.868	
234.200	112.924	
234.300	84.613	
234.400	101.974	
234.500	107.133	
234.600	94.043	
234.700	112.734	
234.800	98.594	
234.900	102.371	
235.000	89.034	
235.100	116.800	
235.200	93.300	
235.300	87.199	
235.400	111.018	
235.500	99.033	
235.600	106.409	
235.700	91.397	
235.800	101.419	
235.900	95.701	
236.000	98.670	
236.100	100.111	
236.200	95.281	
236.300	104.228	
236.400	102.239	
236.500	89.619	
236.600	94.029	
236.700	101.817	
236.800	106.471	
236.900	93.652	
237.000	100.235	
237.100	104.465	
237.200	89.285	
237.300	109.910	
237.400	107.464	
237.500	98.164	
237.600	94.233	
237.700	97.933	
237.800	106.023	
237.900	101.185	
238.000	109.199	
238.100	85.076	
238.200	107.998	
238.300	87.520	
238.400	107.061	
238.500	109.708	
238.600	93.277	
238.700	99.369	
238.800	97.016	
238.900	86.797	
239.000	97.925	
239.100	105.064	
239.200	100.031	
239.300	95.779	
239.400	113.695	
239.500	101.549	
239.600	100.168	
239.700	104.522	
239.800	68.396	
239.900	80.731	
240.000	66.446	
240.100	36.384	
240.200	34.696	
240.300	-8.797	
240.400	-3.260	
240.500	-27.583	
240.600	-49.245	
240.700	-56.909	
240.800	-64.175	
240.900	-72.184	
241.000	-85.265	
241.100	-84.527	
241.200	-103.102	
241.300	-100.962	
241.400	-109.374	
241.500	-107.626	
241.600	-125.053	
241.700	-117.430	
241.800	-128.589	
241.900	-141.322	
242.000	-146.012	
242.100	-125.756	
242.200	-138.640	
242.300	-129.659	
242.400	-151.336	
242.500	-146.352	
242.600	-151.249	
242.700	-150.982	
242.800	-158.142	
242.900	-154.707	
243.000	-151.465	
243.100	-164.485	
243.200	-156.731	
243.300	-157.922	
243.400	-151.616	
243.500	-137.605	
243.600	-135.796	
243.700	-151.756	
243.800	-148.517	
243.900	-149.102	
244.000	-144.528	
244.100	-144.433	
244.200	-144.842	
244.300	-136.468	
244.400	-140.301	
244.500	-149.928	
244.600	-134.506	
244.700	-128.950	
244.800	-126.065	
244.900	-121.220	
245.000	-131.513	
245.100	-138.055	
245.200	-130.546	
245.300	-128.475	
245.400	-108.573	
245.500	-99.519	
245.600	-109.194	
245.700	-123.994	
245.800	-109.420	
245.900	-110.277	
246.000	-108.422	
246.100	-105.458	
246.200	-103.276	
246.300	-110.951	
246.400	-107.751	
246.500	-106.237	
246.600	-92.305	
246.700	-92.144	
246.800	-97.479	
246.900	-95.313	
247.000	-118.473	
247.100	-76.807	
247.200	-78.072	
247.300	-75.653	
247.400	-88.480	
247.500	-91.264	
247.600	-88.709	
247.700	-89.947	
247.800	-69.107	
247.900	-76.355	
248.000	-79.417	
248.100	-81.779	
248.200	-86.554	
248.300	-73.781	
248.400	-80.224	
248.500	-66.200	
248.600	-66.828	
248.700	-88.221	
248.800	-60.971	
248.900	-63.690	
249.000	-64.991	
249.100	-58.039	
249.200	-67.319	
249.300	-63.315	
249.400	-70.956	
249.500	-59.397	
249.600	-53.381	
249.700	-42.235	
249.800	-88.303	
249.900	-57.428	
250.000	-55.934	
250.100	-56.618	
250.200	-71.714	
250.300	-59.013	
250.400	-53.634	
250.500	-61.254	
250.600	-57.144	
250.700	-43.010	
250.800	-59.723	
250.900	-55.306	
251.000	-53.388	
251.100	-65.322	
251.200	-60.374	
251.300	-44.419	
251.400	-55.820	
251.500	-40.142	
251.600	-48.511	
251.700	-52.405	
251.800	-44.382	
251.900	-56.104	
252.000	-45.987	
252.100	-51.150	
252.200	-53.654	
252.300	-50.922	
252.400	-57.675	
252.500	-55.876	
252.600	-56.560	
252.700	-50.466	
252.800	-51.669	
252.900	-41.736	
253.000	-60.078	
253.100	-48.508	
253.200	-48.883	
253.300	-47.499	
253.400	-38.624	
253.500	-45.100	
253.600	-59.918	
253.700	-50.380	
253.800	-34.486	
253.900	-41.456	
254.000	-43.816	
254.100	-40.240	
254.200	-59.104	
254.300	-47.593	
254.400	-46.373	
254.500	-39.971	
254.600	-46.719	
254.700	-47.308	
254.800	-28.916	
254.900	-41.001	
255.000	-38.767	
255.100	-56.368	
255.200	-28.035	
255.300	-31.614	
255.400	-45.973	
255.500	-41.607	
255.600	-39.925	
255.700	-42.123	
255.800	-44.342	
255.900	-42.267	
256.000	-34.013	
256.100	-35.146	
256.200	-41.065	
256.300	-56.268	
256.400	-35.852	
256.500	-54.662	
256.600	-39.422	
256.700	-24.141	
256.800	-44.707	
256.900	-41.294	
257.000	-42.128	
257.100	-46.731	
257.200	-31.044	
257.300	-39.754	
257.400	-52.987	
257.500	-36.594	
257.600	-32.667	
257.700	-38.284	
257.800	-43.732	
257.900	-52.668	
258.000	-29.572	
258.100	-43.415	
258.200	-45.791	
258.300	-31.245	
258.400	-66.900	
258.500	-38.037	
258.600	-45.275	
258.700	-32.211	
258.800	-33.946	
258.900	-43.775	
259.000	-45.802	
259.100	-30.133	
259.200	-32.431	
259.300	-36.688	
259.400	-52.516	
259.500	-48.245	
259.600	-31.467	
259.700	-28.608	
259.800	-43.722	
259.900	-43.726	
260.000	-31.467	
260.100	-27.900	
260.200	-37.377	
260.300	-33.153	
260.400	-47.913	
260.500	-41.540	
260.600	-44.486	
260.700	-29.045	
260.800	-40.427	
260.900	-36.790	
261.000	-35.027	
261.100	-35.723	
261.200	-27.251	
261.300	-27.765	
261.400	-28.753	
261.500	-41.103	
261.600	-29.941	
261.700	-40.955	
261.800	-42.110	
261.900	-32.691	
262.000	-32.902	
262.100	-35.982	
262.200	-35.988	
262.300	-26.869	
262.400	-38.076	
262.500	-36.074	
262.600	-41.745	
262.700	-32.963	
262.800	-19.982	
262.900	-29.091	
263.000	-33.986	
263.100	-25.974	
263.200	-40.440	
263.300	-26.666	
263.400	-21.002	
263.500	-40.391	
263.600	-36.849	
263.700	-13.876	
263.800	-41.495	
263.900	-45.341	
264.000	-32.468	
264.100	-39.043	
264.200	-32.273	
264.300	-47.629	
264.400	-32.104	
264.500	-33.491	
264.600	-34.543	
264.700	-27.653	
264.800	-11.797	
264.900	-33.576	
265.000	-30.878	
265.100	-34.551	
265.200	-14.018	
265.300	-19.936	
265.400	-41.735	
265.500	-22.599	
265.600	-30.589	
265.700	-26.255	
265.800	-31.304	
265.900	-31.510	
266.000	-25.453	
266.100	-36.413	
266.200	-28.403	
266.300	-20.359	
266.400	-35.007	
266.500	-25.096	
266.600	-42.152	
266.700	-26.576	
266.800	-30.026	
266.900	-41.160	
267.000	-32.216	
267.100	-21.342	
267.200	-38.166	
267.300	-30.889	
267.400	-46.592	
267.500	-24.975	
267.600	-13.861	
267.700	-41.064	
267.800	-29.039	
267.900	-20.153	
268.000	-32.728	
268.100	-24.556	
268.200	-23.185	
268.300	-30.997	
268.400	-31.853	
268.500	-31.394	
268.600	-31.767	
268.700	-26.478	
268.800	-23.594	
268.900	-18.700	
269.000	-28.566	
269.100	-31.553	
269.200	-40.870	
269.300	-24.344	
269.400	-33.487	
269.500	-9.021	
269.600	-27.223	
269.700	-20.051	
269.800	-41.394	
269.900	-28.211	
270.000	-37.180	
270.100	-13.726	
270.200	-39.444	
270.300	-23.425	
270.400	-25.292	
270.500	-18.123	
270.600	-17.902	
270.700	-27.107	
270.800	-37.771	
270.900	-12.503	
271.000	-20.100	
271.100	-24.465	
271.200	-25.855	
271.300	-20.017	
271.400	-20.356	
271.500	-17.548	
271.600	-25.383	
271.700	-3.853	
271.800	-27.114	
271.900	-28.246	
272.000	-27.984	
272.100	-28.246	
272.200	-13.633	
272.300	-26.108	
272.400	-22.293	
272.500	-31.539	
272.600	-32.657	
272.700	-18.730	
272.800	-21.426	
272.900	-26.753	
273.000	-20.674	
273.100	-22.368	
273.200	-35.259	
273.300	-17.832	
273.400	-22.886	
273.500	-26.652	
273.600	-22.966	
273.700	-16.528	
273.800	-23.037	
273.900	-25.769	
274.000	-26.902	
274.100	-9.648	
274.200	-23.202	
274.300	-21.231	
274.400	-38.691	
274.500	-21.895	
274.600	-14.116	
274.700	-10.668	
274.800	-20.366	
274.900	-7.820	
275.000	-21.621	
275.100	-18.446	
275.200	-17.012	
275.300	-35.027	
275.400	-14.207	
275.500	-15.044	
275.600	-17.329	
275.700	-17.628	
275.800	-14.237	
275.900	-29.907	
276.000	-25.822	
276.100	-1.548	
276.200	-16.925	
276.300	-40.018	
276.400	-19.497	
276.500	-25.043	
276.600	-11.739	
276.700	-17.704	
276.800	-27.493	
276.900	-29.804	
277.000	-13.321	
277.100	-14.801	
277.200	-17.233	
277.300	-8.327	
277.400	-30.614	
277.500	-13.160	
277.600	-23.005	
277.700	-26.846	
277.800	-16.457	
277.900	-27.571	
278.000	-17.119	
278.100	-16.001	
278.200	-20.955	
278.300	-13.455	
278.400	-19.289	
278.500	-28.730	
278.600	-15.857	
278.700	-20.751	
278.800	-18.692	
278.900	-31.785	
279.000	-24.226	
279.100	-25.766	
279.200	-15.329	
279.300	-18.795	
279.400	-20.709	
279.500	-21.828	
279.600	-41.891	
279.700	-12.928	
279.800	-30.361	
279.900	-11.103	
280.000	-25.323	
280.100	-23.401	
280.200	-8.906	
280.300	-18.560	
280.400	-19.118	
280.500	-16.356	
280.600	-31.685	
280.700	-34.400	
280.800	-22.456	
280.900	-17.027	
281.000	-21.979	
281.100	-15.970	
281.200	0.278	
281.300	-17.492	
281.400	-22.926	
281.500	-19.034	
281.600	-20.857	
281.700	-36.294	
281.800	-21.210	
281.900	-20.074	
282.000	-20.395	
282.100	-14.121	
282.200	-18.032	
282.300	-21.182	
282.400	-24.143	
282.500	-27.658	
282.600	-14.026	
282.700	-18.840	
282.800	-20.136	
282.900	-18.726	
283.000	-15.875	
283.100	-16.455	
283.200	-27.426	
283.300	-21.816	
283.400	-21.312	
283.500	-12.145	
283.600	-23.925	
283.700	-27.442	
283.800	-17.075	
283.900	-17.799	
284.000	-26.897	
284.100	-25.301	
284.200	-12.734	
284.300	-29.471	
284.400	-26.232	
284.500	-5.263	
284.600	-19.498	
284.700	-13.674	
284.800	-19.862	
284.900	-37.675	
285.000	-17.571	
285.100	-15.708	
285.200	-11.045	
285.300	-21.603	
285.400	-24.888	
285.500	-6.608	
285.600	-13.186	
285.700	-21.298	
285.800	-7.106	
285.900	-26.352	
286.000	-26.218	
286.100	-21.901	
286.200	-9.787	
286.300	-21.120	
286.400	-13.799	
286.500	-13.888	
286.600	-16.950	
286.700	-20.931	
286.800	-19.601	
286.900	-25.152	
287.000	-9.284	
287.100	-15.592	
287.200	-15.530	
287.300	-24.067	
287.400	-22.259	
287.500	-16.260	
287.600	-17.934	
287.700	-27.089	
287.800	-6.389	
287.900	-21.476	
288.000	-18.104	
288.100	-20.020	
288.200	-6.376	
288.300	-19.937	
288.400	-14.467	
288.500	-17.627	
288.600	-33.864	
288.700	-0.400	
288.800	-2.651	
288.900	-33.468	
289.000	-17.984	
289.100	-30.417	
289.200	-19.499	
289.300	-15.298	
289.400	-28.270	
289.500	8.240	
289.600	-30.397	
289.700	-10.009	
289.800	-33.249	
289.900	-23.381	
290.000	-7.286	
290.100	-14.717	
290.200	-16.104	
290.300	-35.491	
290.400	-14.797	
290.500	-17.660	
290.600	-15.565	
290.700	-25.324	
290.800	-18.383	
290.900	-20.850	
291.000	-16.612	
291.100	-16.107	
291.200	-10.296	
291.300	-29.926	
291.400	-6.720	
291.500	-13.468	
291.600	-21.780	
291.700	-17.177	
291.800	-12.315	
291.900	-15.900	
292.000	-15.811	
292.100	-23.826	
292.200	-16.892	
292.300	-18.194	
292.400	-15.566	
292.500	-17.003	
292.600	-3.985	
292.700	-11.201	
292.800	-25.117	
292.900	-25.025	
293.000	-29.876	
293.100	-6.321	
293.200	-8.805	
293.300	-2.048	
293.400	-31.477	
293.500	-18.227	
293.600	-18.689	
293.700	-19.106	
293.800	-15.994	
293.900	-18.847	
294.000	-26.741	
294.100	-20.114	
294.200	-20.826	
294.300	-30.764	
294.400	-12.728	
294.500	-19.666	
294.600	-20.461	
294.700	-16.717	
294.800	-26.808	
294.900	-25.274	
295.000	1.560	
295.100	-35.430	
295.200	-9.914	
295.300	-17.483	
295.400	-15.503	
295.500	-6.779	
295.600	-36.432	
295.700	-8.059	
295.800	-14.443	
295.900	-20.866	
296.000	-13.151	
296.100	-20.685	
296.200	-9.343	
296.300	-24.165	
296.400	-5.527	
296.500	-27.091	
296.600	-15.234	
296.700	-25.990	
296.800	-12.779	
296.900	-22.165	
297.000	-8.369	
297.100	-26.474	
297.200	-26.479	
297.300	-12.855	
297.400	-18.779	
297.500	-13.678	
297.600	-18.299	
297.700	-3.218	
297.800	-14.412	
297.900	-23.660	
298.000	-12.450	
298.100	-15.053	
298.200	-4.388	
298.300	-2.985	
298.400	-1.926	
298.500	-18.860	
298.600	-19.099	
298.700	-7.544	
298.800	-21.001	
298.900	-29.828	
299.000	-12.445	
299.100	-14.603	
299.200	-13.288	
299.300	-11.532	
299.400	-18.731	
299.500	1.881	
299.600	-5.739	
299.700	-15.829	
299.800	-30.021	
299.900	-7.198	
300.000	-18.953	
300.100	-8.365	
300.200	-11.305	
300.300	-14.500	
300.400	-12.283	
300.500	-9.728	
300.600	-12.987	
300.700	-20.452	
300.800	-14.905	
300.900	-18.125	
301.000	-18.348	
301.100	-5.821	
301.200	-39.160	
301.300	-4.964	
301.400	-22.345	
301.500	-17.015	
301.600	-3.302	
301.700	-17.528	
301.800	-28.297	
301.900	-10.240	
302.000	-11.471	
302.100	-20.960	
302.200	-21.774	
302.300	-9.514	
302.400	-28.440	
302.500	-19.700	
302.600	-16.280	
302.700	-16.766	
302.800	-17.568	
302.900	-25.066	
303.000	-19.979	
303.100	-18.017	
303.200	-25.416	
303.300	-26.744	
303.400	-3.046	
303.500	-20.685	
303.600	-14.937	
303.700	-20.745	
303.800	-16.731	
303.900	-10.349	
304.000	-7.711	
304.100	-29.459	
304.200	-11.797	
304.300	-9.270	
304.400	-29.075	
304.500	-17.838	
304.600	-5.495	
304.700	-18.831	
304.800	-17.403	
304.900	-29.588	
305.000	-14.586	
305.100	-8.431	
305.200	-12.946	
305.300	-18.577	
305.400	-13.830	
305.500	-28.784	
305.600	-18.937	
305.700	-17.643	
305.800	-12.147	
305.900	-21.461	
306.000	-21.310	
306.100	-13.010	
306.200	-4.284	
306.300	-7.667	
306.400	-17.377	
306.500	-4.463	
306.600	-12.717	
306.700	-27.874	
306.800	-28.337	
306.900	-12.589	
307.000	-19.371	
307.100	-9.762	
307.200	-16.078	
307.300	-19.115	
307.400	-9.815	
307.500	-23.899	
307.600	-12.908	
307.700	-18.291	
307.800	-12.945	
307.900	-12.089	
308.000	-24.949	
308.100	-7.590	
308.200	-10.284	
308.300	-17.712	
308.400	-26.316	
308.500	-10.575	
308.600	-15.756	
308.700	-9.167	
308.800	-12.152	
308.900	-27.933	
309.000	1.841	
309.100	-12.898	
309.200	-19.289	
309.300	-23.791	
309.400	-8.390	
309.500	-7.306	
309.600	-16.915	
309.700	-10.194	
309.800	-15.462	
309.900	-24.578	
310.000	-18.533	
310.100	-14.956	
310.200	-23.170	
310.300	-33.915	
310.400	-8.213	
310.500	-3.830	
310.600	-31.546	
310.700	-9.419	
310.800	4.394	
310.900	-2.952	
311.000	-12.970	
311.100	-10.585	
311.200	-19.140	
311.300	-16.089	
311.400	-21.907	
311.500	-12.008	
311.600	-15.511	
311.700	-10.904	
311.800	-6.555	
311.900	-22.416	
312.000	-16.101	
312.100	-2.112	
312.200	-1.438	
312.300	-16.448	
312.400	-7.271	
312.500	-23.868	
312.600	-17.693	
312.700	-4.588	
312.800	-11.681	
312.900	-14.851	
313.000	-7.248	
313.100	-23.279	
313.200	-14.749	
313.300	5.378	
313.400	-14.806	
313.500	-27.536	
313.600	-6.376	
313.700	-9.629	
313.800	-1.810	
313.900	-6.123	
314.000	-24.700	
314.100	-14.467	
314.200	-11.119	
314.300	-19.920	
314.400	-1.382	
314.500	-3.688	
314.600	-5.323	
314.700	-19.051	
314.800	-25.767	
314.900	-0.468	
315.000	-7.386	
315.100	-19.873	
315.200	-13.717	
315.300	-9.527	
315.400	-17.262	
315.500	-17.564	
315.600	-13.978	
315.700	0.842	
315.800	-16.635	
315.900	-21.817	
316.000	-30.784	
316.100	-2.279	
316.200	-4.789	
316.300	-15.685	
316.400	-8.148	
316.500	-22.326	
316.600	-6.435	
316.700	-17.225	
316.800	-1.892	
316.900	-17.397	
317.000	-11.867	
317.100	-8.246	
317.200	-17.094	
317.300	-2.591	
317.400	2.474	
317.500	-10.947	
317.600	-20.756	
317.700	-24.444	
317.800	-5.193	
317.900	-26.672	
318.000	-18.845	
318.100	-5.048	
318.200	-14.727	
318.300	-0.482	
318.400	-13.474	
318.500	-9.369	
318.600	-11.930	
318.700	-8.206	
318.800	-23.548	
318.900	-6.564	
319.000	-0.962	
319.100	-22.758	
319.200	-6.353	
319.300	-22.428	
319.400	-16.007	
319.500	-20.746	
319.600	-7.678	
319.700	-23.329	
319.800	-12.081	
319.900	-7.908	
320.000	-11.414	
320.100	-7.242	
320.200	-31.451	
320.300	-15.851	
320.400	-10.278	
320.500	-2.392	
320.600	-10.378	
320.700	-11.238	
320.800	-22.104	
320.900	-13.223	
321.000	-20.936	
321.100	-12.789	
321.200	-5.099	
321.300	-12.220	
321.400	-5.488	
321.500	-14.200	
321.600	-18.872	
321.700	-33.128	
321.800	4.078	
321.900	-1.359	
322.000	-16.126	
322.100	-14.858	
322.200	-15.112	
322.300	-6.168	
322.400	7.474	
322.500	-7.683	
322.600	-10.796	
322.700	-17.555	
322.800	-24.701	
322.900	-14.130	
323.000	-11.882	
323.100	-21.286	
323.200	0.174	
323.300	-24.996	
323.400	-13.507	
323.500	-1.951	
323.600	-9.614	
323.700	-24.529	
323.800	-12.095	
323.900	-17.832	
324.000	-13.016	
324.100	-23.085	
324.200	-16.971	
324.300	-11.369	
324.400	-10.808	
324.500	-13.977	
324.600	-11.762	
324.700	-12.279	
324.800	-6.535	
324.900	-25.192	
325.000	-10.793	
325.100	-0.600	
325.200	-11.125	
325.300	-16.717	
325.400	-6.517	
325.500	-9.284	
325.600	-13.167	
325.700	-14.979	
325.800	-8.118	
325.900	-12.080	
326.000	-18.986	
326.100	-10.879	
326.200	-7.836	
326.300	-12.481	
326.400	-2.639	
326.500	-17.915	
326.600	-13.403	
326.700	0.469	
326.800	-12.018	
326.900	-21.934	
327.000	0.709	
327.100	-24.649	
327.200	-9.061	
327.300	-9.225	
327.400	0.762	
327.500	-10.726	
327.600	-3.929	
327.700	-14.845	
327.800	-7.263	
327.900	-13.004	
328.000	-6.814	
328.100	-0.917	
328.200	-30.830	
328.300	-16.720	
328.400	-2.179	
328.500	-12.875	
328.600	-9.898	
328.700	-20.924	
328.800	-4.309	
328.900	-6.128	
329.000	-24.731	
329.100	-11.826	
329.200	-15.873	
329.300	-16.433	
329.400	-16.037	
329.500	-17.282	
329.600	-8.175	
329.700	-16.302	
329.800	5.634	
329.900	6.584	
330.000	22.031	
330.100	34.026	
330.200	54.493	
330.300	64.033	
330.400	41.720	
330.500	66.884	
330.600	63.499	
330.700	72.717	
330.800	67.030	
330.900	74.316	
331.000	74.272	
331.100	73.780	
331.200	66.575	
331.300	81.139	
331.400	73.994	
331.500	72.932	
331.600	66.866	
331.700	74.169	
331.800	75.823	
331.900	82.753	
332.000	70.268	
332.100	86.793	
332.200	61.498	
332.300	75.845	
332.400	63.834	
332.500	62.258	
332.600	64.267	
332.700	68.892	
332.800	83.262	
332.900	68.037	
333.000	54.008	
333.100	68.755	
333.200	55.606	
333.300	65.077	
333.400	53.837	
333.500	73.244	
333.600	65.263	
333.700	42.042	
333.800	65.687	
333.900	52.313	
334.000	60.102	
334.100	56.815	
334.200	66.657	
334.300	61.383	
334.400	77.193	
334.500	64.138	
334.600	69.150	
334.700	62.551	
334.800	78.628	
334.900	73.242	
335.000	82.802	
335.100	80.773	
335.200	77.096	
335.300	68.063	
335.400	65.350	
335.500	78.448	
335.600	89.965	
335.700	84.837	
335.800	84.614	
335.900	83.058	
336.000	86.908	
336.100	90.463	
336.200	89.182	
336.300	79.610	
336.400	95.054	
336.500	91.421	
336.600	92.437	
336.700	82.229	
336.800	92.153	
336.900	87.151	
337.000	82.409	
337.100	98.233	
337.200	98.545	
337.300	89.956	
337.400	98.492	
337.500	95.537	
337.600	88.759	
337.700	94.228	
337.800	90.357	
337.900	92.411	
338.000	94.120	
338.100	77.186	
338.200	96.390	
338.300	82.516	
338.400	99.813	
338.500	91.890	
338.600	98.344	
338.700	81.889	
338.800	97.759	
338.900	101.889	
339.000	103.227	
339.100	95.676	
339.200	115.551	
339.300	81.222	
339.400	91.661	
339.500	99.264	
339.600	81.853	
339.700	101.240	
339.800	93.858	
339.900	102.385	
340.000	110.018	
340.100	92.754	
340.200	91.124	
340.300	110.102	
340.400	91.217	
340.500	94.110	
340.600	112.849	
340.700	100.257	
340.800	93.511	
340.900	94.374	
341.000	103.099	
341.100	97.930	
341.200	100.378	
341.300	107.659	
341.400	101.811	
341.500	98.625	
341.600	99.872	
341.700	106.325	
341.800	95.240	
341.900	105.474	
342.000	110.564	
342.100	101.268	
342.200	102.337	
342.300	90.056	
342.400	110.918	
342.500	84.431	
342.600	93.288	
342.700	113.428	
342.800	103.582	
342.900	97.623	
343.000	108.151	
343.100	94.148	
343.200	98.611	
343.300	98.157	
343.400	100.952	
343.500	97.997	
343.600	94.866	
343.700	99.773	
343.800	94.192	
343.900	86.907	
344.000	104.803	
344.100	95.506	
344.200	95.734	
344.300	99.736	
344.400	105.923	
344.500	89.738	
344.600	99.574	
344.700	97.538	
344.800	102.166	
344.900	83.379	
345.000	89.857	
345.100	92.716	
345.200	95.417	
345.300	100.883	
345.400	84.715	
345.500	81.546	
345.600	95.516	
345.700	102.890	
345.800	91.263	
345.900	103.422	
346.000	101.754	
346.100	78.652	
346.200	92.599	
346.300	104.016	
346.400	104.395	
346.500	93.426	
346.600	92.262	
346.700	91.002	
346.800	103.989	
346.900	98.574	
347.000	100.583	
347.100	88.635	
347.200	95.521	
347.300	73.362	
347.400	106.556	
347.500	85.819	
347.600	95.640	
347.700	99.898	
347.800	87.052	
347.900	90.194	
348.000	92.390	
348.100	84.732	
348.200	87.335	
348.300	95.893	
348.400	75.283	
348.500	100.042	
348.600	90.123	
348.700	97.377	
348.800	89.908	
348.900	87.524	
349.000	79.993	
349.100	95.055	
349.200	80.190	
349.300	84.382	
349.400	90.740	
349.500	89.553	
349.600	90.191	
349.700	89.647	
349.800	77.217	
349.900	76.568	
350.000	86.279	
350.100	89.167	
350.200	87.596	
350.300	90.625	
350.400	88.070	
350.500	77.410	
350.600	93.192	
350.700	83.246	
350.800	68.004	
350.900	81.534	
351.000	83.665	
351.100	71.852	
351.200	76.647	
351.300	77.799	
351.400	73.917	
351.500	81.674	
351.600	80.185	
351.700	87.888	
351.800	75.914	
351.900	83.725	
352.000	74.304	
352.100	98.238	
352.200	80.569	
352.300	90.229	
352.400	74.672	
352.500	95.186	
352.600	78.829	
352.700	67.054	
352.800	95.577	
352.900	90.248	
353.000	81.864	
353.100	75.562	
353.200	95.237	
353.300	86.203	
353.400	76.539	
353.500	75.947	
353.600	88.907	
353.700	64.345	
353.800	87.018	
353.900	79.111	
354.000	85.305	
354.100	73.917	
354.200	81.870	
354.300	85.099	
354.400	76.139	
354.500	86.660	
354.600	75.918	
354.700	77.119	
354.800	73.191	
354.900	80.197	
355.000	78.047	
355.100	73.725	
355.200	91.090	
355.300	81.875	
355.400	82.338	
355.500	89.855	
355.600	87.344	
355.700	64.340	
355.800	82.941	
355.900	79.818	
356.000	63.576	
356.100	86.573	
356.200	84.116	
356.300	85.818	
356.400	86.182	
356.500	76.444	
356.600	90.178	
356.700	76.146	
356.800	72.369	
356.900	81.579	
357.000	83.247	
357.100	74.078	
357.200	74.240	
357.300	66.226	
357.400	83.038	
357.500	102.406	
357.600	90.251	
357.700	77.037	
357.800	83.361	
357.900	76.441	
358.000	76.961	
358.100	98.817	
358.200	85.968	
358.300	82.575	
358.400	83.298	
358.500	87.100	
358.600	88.384	
358.700	78.815	
358.800	87.533	
358.900	84.157	
359.000	86.907	
359.100	84.294	
359.200	88.803	
359.300	91.390	
359.400	89.200	
359.500	83.776	
359.600	93.341	
359.700	79.822	
359.800	86.273	
359.900	81.744	
360.000	84.905	
360.100	78.413	
360.200	92.407	
360.300	93.226	
360.400	91.184	
360.500	87.870	
360.600	85.813	
360.700	78.559	
360.800	85.801	
360.900	85.628	
361.000	89.150	
361.100	76.626	
361.200	90.616	
361.300	95.493	
361.400	92.874	
361.500	84.306	
361.600	79.164	
361.700	106.694	
361.800	77.849	
361.900	110.650	
362.000	93.580	
362.100	96.947	
362.200	90.420	
362.300	85.983	
362.400	100.359	
362.500	97.745	
362.600	91.812	
362.700	96.273	
362.800	96.169	
362.900	97.540	
363.000	98.781	
363.100	92.991	
363.200	99.989	
363.300	97.220	
363.400	93.786	
363.500	99.598	
363.600	98.161	
363.700	86.444	
363.800	91.862	
363.900	84.329	
364.000	107.623	
364.100	101.116	
364.200	94.162	
364.300	87.051	
364.400	101.335	
364.500	90.207	
364.600	107.707	
364.700	98.487	
364.800	75.533	
364.900	111.550	
365.000	91.089	
365.100	88.812	
365.200	101.272	
365.300	100.283	
365.400	107.826	
365.500	97.688	
365.600	97.267	
365.700	91.723	
365.800	99.231	
365.900	97.354	
366.000	86.584	
366.100	102.060	
366.200	106.590	
366.300	92.057	
366.400	93.344	
366.500	101.877	
366.600	98.100	
366.700	99.892	
366.800	94.967	
366.900	93.661	
367.000	115.628	
367.100	96.379	
367.200	101.639	
367.300	99.888	
367.400	97.980	
367.500	116.783	
367.600	89.680	
367.700	107.850	
367.800	100.132	
367.900	112.978	
368.000	98.369	
368.100	106.407	
368.200	98.584	
368.300	101.439	
368.400	92.316	
368.500	109.825	
368.600	103.504	
368.700	99.361	
368.800	95.665	
368.900	108.491	
369.000	91.831	
369.100	123.134	
369.200	98.521	
369.300	96.642	
369.400	121.804	
369.500	107.636	
369.600	114.093	
369.700	97.745	
369.800	111.689	
369.900	104.227	
370.000	100.956	
370.100	101.417	
370.200	99.225	
370.300	104.607	
370.400	93.965	
370.500	102.620	
370.600	104.677	
370.700	102.650	
370.800	101.062	
370.900	98.650	
371.000	112.509	
371.100	127.217	
371.200	106.587	
371.300	100.203	
371.400	91.086	
371.500	106.210	
371.600	118.240	
371.700	103.183	
371.800	98.807	
371.900	98.861	
372.000	87.873	
372.100	127.048	
372.200	108.630	
372.300	102.047	
372.400	114.931	
372.500	104.582	
372.600	97.155	
372.700	113.173	
372.800	110.504	
372.900	106.968	
373.000	92.319	
373.100	109.806	
373.200	103.817	
373.300	108.643	
373.400	110.321	
373.500	93.877	
373.600	115.196	
373.700	112.199	
373.800	99.387	
373.900	101.757	
374.000	96.407	
374.100	110.915	
374.200	103.349	
374.300	92.786	
374.400	111.990	
374.500	112.007	
374.600	99.374	
374.700	115.938	
374.800	83.656	
374.900	101.777	
375.000	109.660	
375.100	116.525	
375.200	92.004	
375.300	116.507	
375.400	93.838	
375.500	106.941	
375.600	107.491	
375.700	106.314	
375.800	108.638	
375.900	92.873	
376.000	125.565	
376.100	113.385	
376.200	103.778	
376.300	101.194	
376.400	100.439	
376.500	110.689	
376.600	108.222	
376.700	110.698	
376.800	111.374	
376.900	99.348	
377.000	108.203	
377.100	111.500	
377.200	112.113	
377.300	109.815	
377.400	105.795	
377.500	98.454	
377.600	94.679	
377.700	105.993	
377.800	116.031	
377.900	106.808	
378.000	99.983	
378.100	99.934	
378.200	102.119	
378.300	108.367	
378.400	108.267	
378.500	112.948	
378.600	110.918	
378.700	95.782	
378.800	90.085	
378.900	99.618	
379.000	100.914	
379.100	88.470	
379.200	114.413	
379.300	112.117	
379.400	117.536	
379.500	94.661	
379.600	101.041	
379.700	99.977	
379.800	110.201	
379.900	112.966	
380.000	89.435	
380.100	101.577	
380.200	100.645	
380.300	106.820	
380.400	104.512	
380.500	89.560	
380.600	114.160	
380.700	104.084	
380.800	96.042	
380.900	107.363	
381.000	104.629	
381.100	99.212	
381.200	120.126	
381.300	102.750	
381.400	99.933	
381.500	100.892	
381.600	93.504	
381.700	106.829	
381.800	94.476	
381.900	95.549	
382.000	90.923	
382.100	102.513	
382.200	100.363	
382.300	101.087	
382.400	105.390	
382.500	100.557	
382.600	106.700	
382.700	96.698	
382.800	103.792	
382.900	106.693	
383.000	107.277	
383.100	84.241	
383.200	116.715	
383.300	98.854	
383.400	105.891	
383.500	99.892	
383.600	107.041	
383.700	100.526	
383.800	92.570	
383.900	106.341	
384.000	97.462	
384.100	101.704	
384.200	96.714	
384.300	106.754	
384.400	91.437	
384.500	81.170	
384.600	100.228	
384.700	97.078	
384.800	119.806	
384.900	93.370	
385.000	102.626	
385.100	103.123	
385.200	95.721	
385.300	101.105	
385.400	107.352	
385.500	95.467	
385.600	100.823	
385.700	85.634	
385.800	97.576	
385.900	105.661	
386.000	91.236	
386.100	89.966	
386.200	106.788	
386.300	105.341	
386.400	99.220	
386.500	96.149	
386.600	101.570	
386.700	95.181	
386.800	101.257	
386.900	90.189	
387.000	88.062	
387.100	90.876	
387.200	95.793	
387.300	89.470	
387.400	93.925	
387.500	100.376	
387.600	93.345	
387.700	95.458	
387.800	93.952	
387.900	78.325	
388.000	102.501	
388.100	88.851	
388.200	99.206	
388.300	98.986	
388.400	82.659	
388.500	90.435	
388.600	103.414	
388.700	103.064	
388.800	88.020	
388.900	89.443	
389.000	100.354	
389.100	91.171	
389.200	104.736	
389.300	81.564	
389.400	96.773	
389.500	84.678	
389.600	97.245	
389.700	95.539	
389.800	88.350	
389.900	71.416	
390.000	60.325	
390.100	38.108	
390.200	28.695	
390.300	-8.070	
390.400	-6.350	
390.500	-30.395	
390.600	-44.634	
390.700	-68.160	
390.800	-69.313	
390.900	-92.303	
391.000	-78.785	
391.100	-109.453	
391.200	-122.757	
391.300	-117.191	
391.400	-126.848	
391.500	-137.748	
391.600	-139.556	
391.700	-160.648	
391.800	-153.835	
391.900	-158.720	
392.000	-140.839	
392.100	-164.928	
392.200	-150.660	
392.300	-159.890	
392.400	-165.983	
392.500	-183.577	
392.600	-168.889	
392.700	-168.567	
392.800	-186.839	
392.900	-180.639	
393.000	-173.399	
393.100	-172.276	
393.200	-159.424	
393.300	-165.489	
393.400	-175.306	
393.500	-180.173	
393.600	-176.261	
393.700	-165.374	
393.800	-165.675	
393.900	-180.871	
394.000	-162.656	
394.100	-173.317	
394.200	-163.224	
394.300	-182.224	
394.400	-145.797	
394.500	-147.768	
394.600	-138.125	
394.700	-148.313	
394.800	-162.019	
394.900	-145.967	
395.000	-152.153	
395.100	-154.529	
395.200	-141.401	
395.300	-141.665	
395.400	-139.052	
395.500	-138.622	
395.600	-122.632	
395.700	-138.448	
395.800	-122.595	
395.900	-117.368	
396.000	-137.623	
396.100	-128.403	
396.200	-126.593	
396.300	-122.615	
396.400	-113.257	
396.500	-106.122	
396.600	-106.355	
396.700	-120.066	
396.800	-96.816	
396.900	-111.236	
397.000	-109.282	
397.100	-102.167	
397.200	-109.058	
397.300	-107.222	
397.400	-103.443	
397.500	-106.791	
397.600	-91.838	
397.700	-98.555	
397.800	-104.926	
397.900	-80.705	
398.000	-96.917	
398.100	-93.273	
398.200	-95.208	
398.300	-83.617	
398.400	-86.329	
398.500	-89.546	
398.600	-88.777	
398.700	-83.955	
398.800	-74.343	
398.900	-87.163	
399.000	-73.711	
399.100	-89.328	
399.200	-73.477	
399.300	-67.206	
399.400	-84.123	
399.500	-81.822	
399.600	-80.838	
399.700	-70.568	
399.800	-61.556	
399.900	-65.541	
400.000	-86.303	
400.100	-72.679	
400.200	-69.733	
400.300	-60.450	
400.400	-72.364	
400.500	-86.579	
400.600	-67.379	
400.700	-57.483	
400.800	-67.348	
400.900	-74.133	
401.000	-59.398	
401.100	-63.810	
401.200	-75.551	
401.300	-59.235	
401.400	-58.225	
401.500	-65.459	
401.600	-59.242	
401.700	-71.617	
401.800	-67.337	
401.900	-83.637	
402.000	-42.265	
402.100	-77.627	
402.200	-67.546	
402.300	-64.891	
402.400	-56.194	
402.500	-68.987	
402.600	-55.866	
402.700	-49.651	
402.800	-69.237	
402.900	-51.686	
403.000	-58.161	
403.100	-66.891	
403.200	-62.409	
403.300	-58.973	
403.400	-55.319	
403.500	-63.018	
403.600	-54.006	
403.700	-52.795	
403.800	-70.350	
403.900	-71.663	
404.000	-47.747	
404.100	-59.124	
404.200	-60.568	
404.300	-50.121	
404.400	-54.696	
404.500	-46.287	
404.600	-62.365	
404.700	-55.571	
404.800	-50.058	
404.900	-49.846	
405.000	-50.720	
405.100	-65.986	
405.200	-49.329	
405.300	-48.980	
405.400	-65.032	
405.500	-54.509	
405.600	-55.543	
405.700	-53.988	
405.800	-57.365	
405.900	-58.115	
406.000	-40.196	
406.100	-44.825	
406.200	-58.465	
406.300	-61.288	
406.400	-40.450	
406.500	-49.331	
406.600	-58.365	
406.700	-51.719	
406.800	-45.658	
406.900	-49.396	
407.000	-56.259	
407.100	-59.846	
407.200	-51.032	
407.300	-49.984	
407.400	-67.984	
407.500	-47.495	
407.600	-45.146	
407.700	-38.107	
407.800	-63.712	
407.900	-54.657	
408.000	-48.721	
408.100	-52.028	
408.200	-44.605	
408.300	-53.250	
408.400	-57.520	
408.500	-48.751	
408.600	-74.098	
408.700	-36.471	
408.800	-41.756	
408.900	-63.263	
409.000	-50.795	
409.100	-43.237	
409.200	-44.748	
409.300	-44.743	
409.400	-40.763	
409.500	-51.889	
409.600	-38.778	
409.700	-49.770	
409.800	-44.793	
409.900	-49.372	
410.000	-63.256	
410.100	-51.271	
410.200	-42.004	
410.300	-45.294	
410.400	-45.377	
410.500	-57.440	
410.600	-35.798	
410.700	-44.677	
410.800	-37.025	
410.900	-44.326	
411.000	-46.211	
411.100	-49.046	
411.200	-50.589	
411.300	-37.318	
411.400	-49.011	
411.500	-39.632	
411.600	-43.887	
411.700	-53.462	
411.800	-50.736	
411.900	-59.601	
412.000	-28.429	
412.100	-45.877	
412.200	-48.498	
412.300	-42.260	
412.400	-36.399	
412.500	-53.211	
412.600	-35.968	
412.700	-46.616	
412.800	-53.758	
412.900	-39.033	
413.000	-27.301	
413.100	-42.269	
413.200	-48.253	
413.300	-29.827	
413.400	-57.057	
413.500	-35.713	
413.600	-39.868	
413.700	-52.497	
413.800	-44.620	
413.900	-40.694	
414.000	-33.061	
414.100	-48.721	
414.200	-37.218	
414.300	-45.598	
414.400	-37.406	
414.500	-37.649	
414.600	-49.616	
414.700	-28.488	
414.800	-32.111	
414.900	-59.477	
415.000	-37.716	
415.100	-27.640	
415.200	-44.493	
415.300	-40.902	
415.400	-28.083	
415.500	-37.655	
415.600	-46.647	
415.700	-20.318	
415.800	-43.871	
415.900	-42.719	
416.000	-37.315	
416.100	-27.915	
416.200	-64.555	
416.300	-43.689	
416.400	-29.178	
416.500	-42.379	
416.600	-48.557	
416.700	-29.761	
416.800	-30.270	
416.900	-30.031	
417.000	-28.822	
417.100	-35.481	
417.200	-37.604	
417.300	-35.699	
417.400	-35.796	
417.500	-40.815	
417.600	-46.495	
417.700	-38.937	
417.800	-36.841	
417.900	-47.141	
418.000	-43.489	
418.100	-19.787	
418.200	-20.669	
418.300	-26.590	
418.400	-43.537	
418.500	-32.593	
418.600	-19.210	
418.700	-26.586	
418.800	-24.517	
418.900	-54.408	
419.000	-44.419	
419.100	-42.634	
419.200	-34.119	
419.300	-13.431	
419.400	-35.542	
419.500	-43.296	
419.600	-36.733	
419.700	-46.808	
419.800	-39.524	
419.900	-51.493	
420.000	-6.520	
420.100	-18.676	
420.200	-41.457	
420.300	-32.249	
420.400	-22.992	
420.500	-56.947	
420.600	-35.751	
420.700	-26.999	
420.800	-31.032	
420.900	-34.823	
421.000	-21.683	
421.100	-30.432	
421.200	-25.164	
421.300	-28.554	
421.400	-35.110	
421.500	-22.162	
421.600	-41.721	
421.700	-32.777	
421.800	-31.917	
421.900	-32.302	
422.000	-29.741	
422.100	-30.492	
422.200	-42.161	
422.300	-41.584	
422.400	-36.546	
422.500	-24.329	
422.600	-29.346	
422.700	-24.950	
422.800	-31.646	
422.900	-43.604	
423.000	-19.580	
423.100	-20.403	
423.200	-23.162	
423.300	-18.801	
423.400	-23.596	
423.500	-37.413	
423.600	-34.559	
423.700	-25.948	
423.800	-28.651	
423.900	-17.488	
424.000	-33.588	
424.100	-42.348	
424.200	-34.546	
424.300	-31.991	
424.400	-16.837	
424.500	-35.573	
424.600	-35.007	
424.700	-35.603	
424.800	-19.551	
424.900	-39.117	
425.000	-25.762	
425.100	-17.125	
425.200	-37.809	
425.300	-30.713	
425.400	-35.667	
425.500	-32.538	
425.600	-35.546	
425.700	-39.802	
425.800	-21.497	
425.900	-35.835	
426.000	-29.888	
426.100	-20.359	
426.200	-24.271	
426.300	-25.582	
426.400	-32.480	
426.500	-26.961	
426.600	-35.937	
426.700	-21.437	
426.800	-13.408	
426.900	-35.933	
427.000	-30.012	
427.100	-24.259	
427.200	-36.310	
427.300	-23.707	
427.400	-35.938	
427.500	-31.750	
427.600	-25.202	
427.700	-31.535	
427.800	-26.146	
427.900	-37.728	
428.000	-30.248	
428.100	-28.479	
428.200	-20.640	
428.300	-35.781	
428.400	-30.202	
428.500	-42.994	
428.600	-8.860	
428.700	-32.641	
428.800	-27.976	
428.900	-29.654	
429.000	-33.595	
429.100	-29.554	
429.200	-14.508	
429.300	-25.851	
429.400	-41.428	
429.500	-30.444	
429.600	-25.629	
429.700	-33.961	
429.800	-28.509	
429.900	-33.185	
430.000	-26.810	
430.100	-32.137	
430.200	-20.825	
430.300	-26.719	
430.400	-27.653	
430.500	-23.576	
430.600	-19.550	
430.700	-22.965	
430.800	-28.220	
430.900	-20.132	
431.000	-27.483	
431.100	-29.997	
431.200	-21.892	
431.300	-23.677	
431.400	-31.257	
431.500	-39.779	
431.600	-27.951	
431.700	-31.588	
431.800	-19.898	
431.900	-35.970	
432.000	-26.179	
432.100	-30.533	
432.200	-17.539	
432.300	-19.621	
432.400	-29.207	
432.500	-19.340	
432.600	-30.599	
432.700	-27.984	
432.800	-22.142	
432.900	-27.582	
433.000	-34.095	
433.100	-15.336	
433.200	-43.068	
433.300	-18.000	
433.400	-38.099	
433.500	-39.687	
433.600	-22.617	
433.700	-26.488	
433.800	-24.514	
433.900	-26.403	
434.000	-21.849	
434.100	-41.916	
434.200	-35.133	
434.300	-26.146	
434.400	-38.597	
434.500	-16.516	
434.600	-22.691	
434.700	-23.025	
434.800	-35.231	
434.900	-32.237	
435.000	-29.584	
435.100	-22.108	
435.200	-27.162	
435.300	-31.262	
435.400	-35.444	
435.500	-26.135	
435.600	-16.362	
435.700	-33.572	
435.800	-22.699	
435.900	-31.259	
436.000	-29.178	
436.100	-12.843	
436.200	-29.245	
436.300	-23.045	
436.400	-33.205	
436.500	-27.283	
436.600	-23.409	
436.700	-50.008	
436.800	-10.749	
436.900	-39.955	
437.000	-12.442	
437.100	-28.225	
437.200	-23.925	
437.300	-32.924	
437.400	-30.133	
437.500	-27.772	
437.600	-24.885	
437.700	-23.141	
437.800	-37.534	
437.900	-22.082	
438.000	-19.819	
438.100	-18.974	
438.200	-25.715	
438.300	-24.068	
438.400	-20.007	
438.500	-27.576	
438.600	-25.120	
438.700	-10.857	
438.800	-42.108	
438.900	-33.454	
439.000	-26.881	
439.100	-14.899	
439.200	-23.092	
439.300	-25.374	
439.400	-35.424	
439.500	-19.566	
439.600	-18.921	
439.700	-46.318	
439.800	-8.269	
439.900	-34.443	
440.000	-32.026	
440.100	-21.032	
440.200	-31.735	
440.300	-23.423	
440.400	-12.450	
440.500	-17.233	
440.600	-17.298	
440.700	-37.505	
440.800	-20.895	
440.900	-37.837	
441.000	-20.784	
441.100	-27.705	
441.200	-25.051	
441.300	-38.987	
441.400	-29.590	
441.500	-28.380	
441.600	-19.293	
441.700	-32.522	
441.800	-17.740	
441.900	-27.000	
442.000	-10.319	
442.100	-31.808	
442.200	-19.620	
442.300	-33.680	
442.400	-28.699	
442.500	-32.042	
442.600	-30.726	
442.700	-14.552	
442.800	-24.826	
442.900	-25.447	
443.000	-15.148	
443.100	-24.927	
443.200	-29.322	
443.300	-23.064	
443.400	-15.120	
443.500	-7.955	
443.600	-30.083	
443.700	-26.027	
443.800	-18.567	
443.900	-22.948	
444.000	-24.273	
444.100	-13.966	
444.200	-28.077	
444.300	-26.770	
444.400	-29.277	
444.500	-17.609	
444.600	-16.617	
444.700	-50.584	
444.800	-23.848	
444.900	-10.036	
445.000	-28.035	
445.100	-31.372	
445.200	-11.644	
445.300	-17.020	
445.400	-28.547	
445.500	-30.988	
445.600	-24.494	
445.700	-33.850	
445.800	-18.278	
445.900	-30.112	
446.000	-17.785	
446.100	-33.163	
446.200	-27.775	
446.300	-25.175	
446.400	-16.268	
446.500	-11.463	
446.600	-30.553	
446.700	-44.257	
446.800	-26.931	
446.900	-21.499	
447.000	-22.726	
447.100	-28.116	
447.200	-27.404	
447.300	-22.438	
447.400	-41.443	
447.500	-11.927	
447.600	-10.231	
447.700	-29.645	
447.800	-24.789	
447.900	-21.731	
448.000	-21.888	
448.100	-22.651	
448.200	-35.226	
448.300	-24.391	
448.400	-28.724	
448.500	-17.065	
448.600	-26.512	
448.700	-33.112	
448.800	-19.623	
448.900	-13.258	
449.000	-20.746	
449.100	-30.526	
449.200	-8.647	
449.300	-7.896	
449.400	-24.195	
449.500	-35.367	
449.600	-18.818	
449.700	-28.173	
449.800	-31.382	
449.900	-17.789	
450.000	-29.629	
450.100	-32.452	
450.200	-15.906	
450.300	-19.628	
450.400	-18.623	
450.500	-20.908	
450.600	-20.110	
450.700	-22.421	
450.800	-18.393	
450.900	-26.796	
451.000	-12.775	
451.100	-34.482	
451.200	-17.783	
451.300	-11.068	
451.400	-19.944	
451.500	-24.326	
451.600	-20.385	
451.700	-25.512	
451.800	-24.351	
451.900	-20.420	
452.000	-10.861	
452.100	-38.653	
452.200	-15.006	
452.300	-13.558	
452.400	-17.673	
452.500	-35.081	
452.600	-15.666	
452.700	-26.832	
452.800	-18.108	
452.900	-14.769	
453.000	-32.787	
453.100	-20.701	
453.200	-16.770	
453.300	-18.064	
453.400	-36.268	
453.500	-9.766	
453.600	-29.194	
453.700	-9.418	
453.800	-24.489	
453.900	-30.285	
454.000	-17.025	
454.100	-22.365	
454.200	-8.529	
454.300	-11.054	
454.400	-31.616	
454.500	-34.764	
454.600	-11.961	
454.700	-20.769	
454.800	-13.197	
454.900	-22.546	
455.000	-3.222	
455.100	-37.639	
455.200	-23.187	
455.300	-14.858	
455.400	-25.469	
455.500	-21.380	
455.600	-13.267	
455.700	-34.269	
455.800	-16.245	
455.900	-14.345	
456.000	-13.855	
456.100	-23.806	
456.200	-16.744	
456.300	-14.203	
456.400	-26.302	
456.500	-21.409	
456.600	-19.983	
456.700	-22.002	
456.800	-35.749	
456.900	-12.771	
457.000	-17.069	
457.100	-19.856	
457.200	-26.422	
457.300	-19.173	
457.400	-36.360	
457.500	-1.027	
457.600	-26.762	
457.700	-25.004	
457.800	-5.704	
457.900	-18.920	
458.000	-14.581	
458.100	-34.264	
458.200	-23.869	
458.300	-24.673	
458.400	-12.818	
458.500	-20.686	
458.600	-16.527	
458.700	-27.016	
458.800	-30.522	
458.900	4.626	
459.000	-18.411	
459.100	-29.382	
459.200	-17.389	
459.300	-16.362	
459.400	-13.165	
459.500	-19.189	
459.600	-17.239	
459.700	-17.360	
459.800	-16.884	
459.900	-27.527	
460.000	-3.698	
460.100	-18.524	
460.200	-39.829	
460.300	7.861	
460.400	-33.385	
460.500	-25.534	
460.600	-11.981	
460.700	-24.562	
460.800	-13.014	
460.900	-26.626	
461.000	-27.593	
461.100	-9.604	
461.200	-17.276	
461.300	-17.086	
461.400	-15.910	
461.500	-20.599	
461.600	-8.142	
461.700	-27.619	
461.800	-21.291	
461.900	-23.345	
462.000	-27.593	
462.100	-14.501	
462.200	-4.634	
462.300	-31.134	
462.400	-21.514	
462.500	-12.987	
462.600	-14.039	
462.700	-22.057	
462.800	-17.086	
462.900	-11.676	
463.000	-28.680	
463.100	-26.496	
463.200	-20.186	
463.300	-27.566	
463.400	-19.593	
463.500	-10.835	
463.600	-22.122	
463.700	-16.735	
463.800	-33.726	
463.900	-30.279	
464.000	-18.097	
464.100	-21.625	
464.200	-22.244	
464.300	-21.682	
464.400	-7.172	
464.500	-27.074	
464.600	-23.166	
464.700	-22.133	
464.800	-10.417	
464.900	-10.779	
465.000	-18.100	
465.100	-23.886	
465.200	-17.121	
465.300	-15.689	
465.400	-18.649	
465.500	-20.494	
465.600	-26.197	
465.700	-11.631	
465.800	-21.208	
465.900	-21.122	
466.000	-23.493	
466.100	-10.451	
466.200	-17.548	
466.300	-20.122	
466.400	-8.584	
466.500	-11.876	
466.600	-19.035	
466.700	-15.914	
466.800	-21.574	
466.900	-15.209	
467.000	-22.523	
467.100	-29.931	
467.200	-6.328	
467.300	-25.380	
467.400	-25.555	
467.500	-0.136	
467.600	-9.571	
467.700	-26.706	
467.800	-26.127	
467.900	-9.020	
468.000	-11.585	
468.100	-16.522	
468.200	-23.015	
468.300	-20.683	
468.400	-19.776	
468.500	-16.142	
468.600	-16.524	
468.700	-11.367	
468.800	-23.533	
468.900	-12.793	
469.000	-17.390	
469.100	-29.644	
469.200	-21.529	
469.300	-12.707	
469.400	-11.101	
469.500	-19.121	
469.600	-26.303	
469.700	-27.023	
469.800	-18.693	
469.900	-24.318	
470.000	-12.206	
470.100	-9.753	
470.200	-25.425	
470.300	-11.905	
470.400	-25.090	
470.500	-7.181	
470.600	-19.104	
470.700	2.228	
470.800	-17.255	
470.900	-20.923	
471.000	-31.158	
471.100	-17.944	
471.200	-23.068	
471.300	-17.174	
471.400	-11.942	
471.500	-10.563	
471.600	-23.034	
471.700	-15.849	
471.800	-27.298	
471.900	-19.491	
472.000	-8.661	
472.100	-22.031	
472.200	-20.187	
472.300	-13.946	
472.400	-25.260	
472.500	-19.597	
472.600	-2.248	
472.700	-4.607	
472.800	-23.030	
472.900	-13.588	
473.000	-15.328	
473.100	-17.608	
473.200	-26.646	
473.300	-13.947	
473.400	-19.204	
473.500	-16.037	
473.600	-9.970	
473.700	-22.940	
473.800	-20.480	
473.900	-25.553	
474.000	-21.755	
474.100	-13.766	
474.200	-12.800	
474.300	-23.277	
474.400	-15.179	
474.500	-22.502	
474.600	-7.991	
474.700	-22.561	
474.800	-12.016	
474.900	-12.972	
475.000	-23.939	
475.100	-24.665	
475.200	-16.765	
475.300	-6.330	
475.400	-36.462	
475.500	-16.461	
475.600	-6.315	
475.700	-14.168	
475.800	-13.568	
475.900	-21.853	
476.000	-19.439	
476.100	-13.246	
476.200	-19.330	
476.300	-32.794	
476.400	-28.435	
476.500	-15.309	
476.600	-24.367	
476.700	-2.827	
476.800	-23.351	
476.900	-21.277	
477.000	-12.358	
477.100	-30.556	
477.200	-23.868	
477.300	-23.316	
477.400	-39.881	
477.500	-15.139	
477.600	-16.713	
477.700	-15.660	
477.800	-16.746	
477.900	-15.530	
478.000	-13.918	
478.100	-21.750	
478.200	-3.882	
478.300	-37.587	
478.400	-33.921	
478.500	-3.126	
478.600	-15.016	
478.700	-26.775	
478.800	-15.231	
478.900	-13.030	
479.000	-11.011	
479.100	-6.853	
479.200	-6.212	
479.300	-15.101	
479.400	-24.386	
479.500	-28.907	
479.600	-25.463	
479.700	-14.758	
479.800	-8.771	
479.900	-17.108	
480.000	21.312	
480.100	26.449	
480.200	54.690	
480.300	54.821	
480.400	55.510	
480.500	54.424	
480.600	68.672	
480.700	58.224	
480.800	77.220	
480.900	88.630	
481.000	39.622	
481.100	79.383	
481.200	76.565	
481.300	83.563	
481.400	74.198	
481.500	71.600	
481.600	88.874	
481.700	71.246	
481.800	83.633	
481.900	83.184	
482.000	78.047	
482.100	73.360	
482.200	77.084	
482.300	73.055	
482.400	65.876	
482.500	72.403	
482.600	60.556	
482.700	64.770	
482.800	75.390	
482.900	68.687	
483.000	74.906	
483.100	56.156	
483.200	66.795	
483.300	46.611	
483.400	66.688	
483.500	55.474	
483.600	51.020	
483.700	63.003	
483.800	49.128	
483.900	53.271	
484.000	72.294	
484.100	61.388	
484.200	76.908	
484.300	60.794	
484.400	64.358	
484.500	78.927	
484.600	73.295	
484.700	78.272	
484.800	69.789	
484.900	68.494	
485.000	68.775	
485.100	80.400	
485.200	72.699	
485.300	87.923	
485.400	78.053	
485.500	80.757	
485.600	86.140	
485.700	74.035	
485.800	78.081	
485.900	82.095	
486.000	80.228	
486.100	101.181	
486.200	85.368	
486.300	93.332	
486.400	78.209	
486.500	80.348	
486.600	85.149	
486.700	96.759	
486.800	79.988	
486.900	83.710	
487.000	106.586	
487.100	89.299	
487.200	92.843	
487.300	84.485	
487.400	92.363	
487.500	99.245	
487.600	85.592	
487.700	89.322	
487.800	94.752	
487.900	86.851	
488.000	94.333	
488.100	103.908	
488.200	94.410	
488.300	90.086	
488.400	90.647	
488.500	94.136	
488.600	82.281	
488.700	94.003	
488.800	109.276	
488.900	100.157	
489.000	103.981	
489.100	89.201	
489.200	92.473	
489.300	103.551	
489.400	92.285	
489.500	104.251	
489.600	89.247	
489.700	87.744	
489.800	92.717	
489.900	105.867	
490.000	92.316	
490.100	95.833	
490.200	95.661	
490.300	96.165	
490.400	99.676	
490.500	94.084	
490.600	98.153	
490.700	110.870	
490.800	86.840	
490.900	110.947	
491.000	89.360	
491.100	111.148	
491.200	109.451	
491.300	88.924	
491.400	115.182	
491.500	107.187	
491.600	93.806	
491.700	101.371	
491.800	104.024	
491.900	86.260	
492.000	98.098	
492.100	90.378	
492.200	106.781	
492.300	90.081	
492.400	89.479	
492.500	93.331	
492.600	108.688	
492.700	99.095	
492.800	111.245	
492.900	99.414	
493.000	99.842	
493.100	102.830	
493.200	108.366	
493.300	103.820	
493.400	88.491	
493.500	99.464	
493.600	89.548	
493.700	96.003	
493.800	107.687	
493.900	88.830	
494.000	105.653	
494.100	111.127	
494.200	100.191	
494.300	90.091	
494.400	104.376	
494.500	90.364	
494.600	92.990	
494.700	90.924	
494.800	104.352	
494.900	91.140	
495.000	101.358	
495.100	86.249	
495.200	85.438	
495.300	103.484	
495.400	86.661	
495.500	97.323	
495.600	98.584	
495.700	93.879	
495.800	111.644	
495.900	93.648	
496.000	85.612	
496.100	85.675	
496.200	105.710	
496.300	96.598	
496.400	90.441	
496.500	92.047	
496.600	97.633	
496.700	92.079	
496.800	93.108	
496.900	86.710	
497.000	106.169	
497.100	97.464	
497.200	90.803	
497.300	90.924	
497.400	85.969	
497.500	96.143	
497.600	93.672	
497.700	89.605	
497.800	90.426	
497.900	98.459	
498.000	82.618	
498.100	93.840	
498.200	84.589	
498.300	92.311	
498.400	106.376	
498.500	79.697	
498.600	72.598	
498.700	94.360	
498.800	98.714	
498.900	90.554	
499.000	99.359	
499.100	86.754	
499.200	91.039	
499.300	106.081	
499.400	87.244	
499.500	86.606	
499.600	88.881	
499.700	89.117	
499.800	73.455	
499.900	81.075	
500.000	91.802	
500.100	97.910	
500.200	93.029	
500.300	78.155	
500.400	81.943	
500.500	90.770	
500.600	78.899	
500.700	84.041	
500.800	83.047	
500.900	78.962	
501.000	83.762	
501.100	91.579	
501.200	89.494	
501.300	90.840	
501.400	77.771	
501.500	69.136	
501.600	80.317	
501.700	88.565	
501.800	69.504	
501.900	88.088	
502.000	83.419	
502.100	83.853	
502.200	84.287	
502.300	89.136	
502.400	83.706	
502.500	74.018	
502.600	85.010	
502.700	82.292	
502.800	91.945	
502.900	61.677	
503.000	77.984	
503.100	88.658	
503.200	84.958	
503.300	70.603	
503.400	78.495	
503.500	83.558	
503.600	76.632	
503.700	63.681	
503.800	81.723	
503.900	81.196	
504.000	67.117	
504.100	68.791	
504.200	87.527	
504.300	81.959	
504.400	78.995	
504.500	87.255	
504.600	80.914	
504.700	77.415	
504.800	87.151	
504.900	86.275	
505.000	77.041	
505.100	72.701	
505.200	96.003	
505.300	82.763	
505.400	77.715	
505.500	58.659	
505.600	81.020	
505.700	83.726	
505.800	74.605	
505.900	74.642	
506.000	84.972	
506.100	83.267	
506.200	78.032	
506.300	75.861	
506.400	71.537	
506.500	85.228	
506.600	72.734	
506.700	72.481	
506.800	87.891	
506.900	89.813	
507.000	88.672	
507.100	60.939	
507.200	86.456	
507.300	76.457	
507.400	94.351	
507.500	77.044	
507.600	91.480	
507.700	70.835	
507.800	86.230	
507.900	72.335	
508.000	89.232	
508.100	84.811	
508.200	83.064	
508.300	89.685	
508.400	76.438	
508.500	98.493	
508.600	69.602	
508.700	78.049	
508.800	93.205	
508.900	75.792	
509.000	87.325	
509.100	97.614	
509.200	71.999	
509.300	89.844	
509.400	76.522	
509.500	78.797	
509.600	90.667	
509.700	89.255	
509.800	88.953	
509.900	85.900	
510.000	80.514	
510.100	87.211	
510.200	89.271	
510.300	82.314	
510.400	95.034	
510.500	94.448	
510.600	77.809	
510.700	94.055	
510.800	79.763	
510.900	83.136	
511.000	98.018	
511.100	81.498	
511.200	82.771	
511.300	85.739	
511.400	86.933	
511.500	97.652	
511.600	101.891	
511.700	91.101	
511.800	92.911	
511.900	90.130	
512.000	89.560	
512.100	101.414	
512.200	105.747	
512.300	99.604	
512.400	82.667	
512.500	98.684	
512.600	95.622	
512.700	94.863	
512.800	87.315	
512.900	89.403	
513.000	88.048	
513.100	101.729	
513.200	105.715	
513.300	70.272	
513.400	98.622	
513.500	102.740	
513.600	96.474	
513.700	90.399	
513.800	92.342	
513.900	99.315	
514.000	100.806	
514.100	95.947	
514.200	94.958	
514.300	102.187	
514.400	89.839	
514.500	89.339	
514.600	89.142	
514.700	106.351	
514.800	103.574	
514.900	117.130	
515.000	100.692	
515.100	96.550	
515.200	87.520	
515.300	107.977	
515.400	91.861	
515.500	99.921	
515.600	88.210	
515.700	102.608	
515.800	98.074	
515.900	103.404	
516.000	106.045	
516.100	91.586	
516.200	120.832	
516.300	100.153	
516.400	99.045	
516.500	91.194	
516.600	103.556	
516.700	99.151	
516.800	94.694	
516.900	107.850	
517.000	88.681	
517.100	108.437	
517.200	106.098	
517.300	102.198	
517.400	99.157	
517.500	115.275	
517.600	105.041	
517.700	114.743	
517.800	104.975	
517.900	110.640	
518.000	102.610	
518.100	96.343	
518.200	98.293	
518.300	123.732	
518.400	111.818	
518.500	110.184	
518.600	102.832	
518.700	85.961	
518.800	104.659	
518.900	123.722	
519.000	90.436	
519.100	90.518	
519.200	93.509	
519.300	114.013	
519.400	98.921	
519.500	94.934	
519.600	103.818	
519.700	109.404	
519.800	115.466	
519.900	107.355	
520.000	115.972	
520.100	91.869	
520.200	101.715	
520.300	109.772	
520.400	103.878	
520.500	104.027	
520.600	102.636	
520.700	85.330	
520.800	96.283	
520.900	113.067	
521.000	101.657	
521.100	101.190	
521.200	106.057	
521.300	102.275	
521.400	104.812	
521.500	79.953	
521.600	118.629	
521.700	99.435	
521.800	109.093	
521.900	110.834	
522.000	104.569	
522.100	102.911	
522.200	102.773	
522.300	104.552	
522.400	95.035	
522.500	99.737	
522.600	98.429	
522.700	95.621	
522.800	107.856	
522.900	99.654	
523.000	102.534	
523.100	110.406	
523.200	96.188	
523.300	103.206	
523.400	109.423	
523.500	106.138	
523.600	86.057	
523.700	106.226	
523.800	97.677	
523.900	108.256	
524.000	112.418	
524.100	87.856	
524.200	94.328	
524.300	99.788	
524.400	85.424	
524.500	114.358	
524.600	104.409	
524.700	102.505	
524.800	101.646	
524.900	94.474	
525.000	100.240	
525.100	109.015	
525.200	104.546	
525.300	86.658	
525.400	93.545	
525.500	108.745	
525.600	104.705	
525.700	104.851	
525.800	104.388	
525.900	93.584	
526.000	103.418	
526.100	96.244	
526.200	101.160	
526.300	100.684	
526.400	101.313	
526.500	109.169	
526.600	103.711	
526.700	93.746	
526.800	101.618	
526.900	113.507	
527.000	98.394	
527.100	86.342	
527.200	100.335	
527.300	94.540	
527.400	93.763	
527.500	103.551	
527.600	111.022	
527.700	91.570	
527.800	97.505	
527.900	89.373	
528.000	88.693	
528.100	103.223	
528.200	104.944	
528.300	94.705	
528.400	94.233	
528.500	95.797	
528.600	86.922	
528.700	86.198	
528.800	102.325	
528.900	98.115	
529.000	95.257	
529.100	87.070	
529.200	105.936	
529.300	96.416	
529.400	98.017	
529.500	101.918	
529.600	95.062	
529.700	88.235	
529.800	86.723	
529.900	106.782	
530.000	99.536	
530.100	84.350	
530.200	100.687	
530.300	91.875	
530.400	87.166	
530.500	99.150	
530.600	103.972	
530.700	93.883	
530.800	93.809	
530.900	101.533	
531.000	102.465	
531.100	105.880	
531.200	86.478	
531.300	91.920	
531.400	101.784	
531.500	82.407	
531.600	94.133	
531.700	97.232	
531.800	88.161	
531.900	100.826	
532.000	91.375	
532.100	89.989	
532.200	90.653	
532.300	96.094	
532.400	96.223	
532.500	101.520	
532.600	75.717	
532.700	94.446	
532.800	89.189	
532.900	86.025	
533.000	93.716	
533.100	97.113	
533.200	100.008	
533.300	80.316	
533.400	87.063	
533.500	85.036	
533.600	98.218	
533.700	94.915	
533.800	87.396	
533.900	79.313	
534.000	97.460	
534.100	94.167	
534.200	97.021	
534.300	95.350	
534.400	85.121	
534.500	72.087	
534.600	94.203	
534.700	101.043	
534.800	79.470	
534.900	94.315	
535.000	100.893	
535.100	84.436	
535.200	96.791	
535.300	87.777	
535.400	94.952	
535.500	74.386	
535.600	103.256	
535.700	92.304	
535.800	94.244	
535.900	80.040	
536.000	86.227	
536.100	86.831	
536.200	78.758	
536.300	95.691	
536.400	84.266	
536.500	89.229	
536.600	91.741	
536.700	97.900	
536.800	101.572	
536.900	88.168	
537.000	84.839	
537.100	90.488	
537.200	81.272	
537.300	87.138	
537.400	94.499	
537.500	82.251	
537.600	88.319	
537.700	98.075	
537.800	80.356	
537.900	83.246	
538.000	95.357	
538.100	85.187	
538.200	92.970	
538.300	78.815	
538.400	99.531	
538.500	82.281	
538.600	86.005	
538.700	78.716	
538.800	80.424	
538.900	71.612	
539.000	93.882	
539.100	93.204	
539.200	84.674	
539.300	84.492	
539.400	82.884	
539.500	77.294	
539.600	92.901	
539.700	89.115	
539.800	83.738	
539.900	69.023	
540.000	63.026	
540.100	64.210	
540.200	41.215	
540.300	13.693	
540.400	-7.449	
540.500	-3.580	
540.600	-21.951	
540.700	-29.737	
540.800	-60.893	
540.900	-75.180	
541.000	-63.694	
541.100	-97.927	
541.200	-98.807	
541.300	-98.771	
541.400	-104.762	
541.500	-112.183	
541.600	-132.296	
541.700	-135.265	
541.800	-142.755	
541.900	-132.137	
542.000	-140.916	
542.100	-152.173	
542.200	-147.544	
542.300	-161.075	
542.400	-154.680	
542.500	-178.656	
542.600	-165.309	
542.700	-155.962	
542.800	-172.367	
542.900	-160.885	
543.000	-157.840	
543.100	-171.170	
543.200	-156.138	
543.300	-174.901	
543.400	-157.789	
543.500	-164.447	
543.600	-164.201	
543.700	-171.818	
543.800	-168.017	
543.900	-156.839	
544.000	-156.020	
544.100	-164.953	
544.200	-151.930	
544.300	-149.695	
544.400	-152.734	
544.500	-152.526	
544.600	-161.339	
544.700	-134.567	
544.800	-164.219	
544.900	-143.608	
545.000	-140.277	
545.100	-133.623	
545.200	-150.057	
545.300	-139.242	
545.400	-127.493	
545.500	-123.494	
545.600	-130.812	
545.700	-138.536	
545.800	-130.301	
545.900	-140.485	
546.000	-124.038	
546.100	-112.060	
546.200	-121.045	
546.300	-117.159	
546.400	-121.864	
546.500	-118.962	
546.600	-107.524	
546.700	-105.341	
546.800	-102.137	
546.900	-107.882	
547.000	-96.017	
547.100	-119.044	
547.200	-110.067	
547.300	-102.658	
547.400	-112.713	
547.500	-77.543	
547.600	-105.685	
547.700	-108.976	
547.800	-96.351	
547.900	-101.387	
548.000	-101.677	
548.100	-89.538	
548.200	-91.124	
548.300	-88.480	
548.400	-87.552	
548.500	-95.425	
548.600	-90.254	
548.700	-75.966	
548.800	-81.699	
548.900	-82.155	
549.000	-82.645	
549.100	-85.269	
549.200	-83.685	
549.300	-102.709	
549.400	-68.183	
549.500	-83.017	
549.600	-70.970	
549.700	-71.600	
549.800	-82.398	
549.900	-68.784	
550.000	-93.652	
550.100	-92.262	
550.200	-76.854	
550.300	-71.708	
550.400	-80.129	
550.500	-80.605	
550.600	-77.038	
550.700	-75.063	
550.800	-70.662	
550.900	-69.508	
551.000	-72.096	
551.100	-61.890	
551.200	-84.279	
551.300	-87.304	
551.400	-76.210	
551.500	-78.172	
551.600	-75.437	
551.700	-68.754	
551.800	-70.007	
551.900	-75.897	
552.000	-75.096	
552.100	-72.695	
552.200	-71.986	
552.300	-69.756	
552.400	-62.032	
552.500	-61.771	
552.600	-70.841	
552.700	-55.443	
552.800	-74.065	
552.900	-72.695	
553.000	-63.005	
553.100	-79.489	
553.200	-61.427	
553.300	-68.958	
553.400	-51.974	
553.500	-76.532	
553.600	-58.518	
553.700	-67.059	
553.800	-62.825	
553.900	-64.312	
554.000	-63.911	
554.100	-62.430	
554.200	-65.602	
554.300	-67.972	
554.400	-64.995	
554.500	-74.968	
554.600	-57.566	
554.700	-49.840	
554.800	-67.275	
554.900	-81.470	
555.000	-61.196	
555.100	-51.319	
555.200	-59.515	
555.300	-61.240	
555.400	-60.550	
555.500	-62.737	
555.600	-53.335	
555.700	-59.520	
555.800	-65.440	
555.900	-51.126	
556.000	-45.907	
556.100	-54.798	
556.200	-58.009	
556.300	-53.593	
556.400	-58.154	
556.500	-83.860	
556.600	-57.387	
556.700	-60.975	
556.800	-54.891	
556.900	-69.312	
557.000	-53.715	
557.100	-60.077	
557.200	-51.656	
557.300	-48.297	
557.400	-58.464	
557.500	-48.722	
557.600	-58.918	
557.700	-62.847	
557.800	-63.783	
557.900	-54.840	
558.000	-65.439	
558.100	-59.867	
558.200	-50.571	
558.300	-57.802	
558.400	-57.752	
558.500	-52.230	
558.600	-67.313	
558.700	-63.721	
558.800	-66.541	
558.900	-51.311	
559.000	-60.909	
559.100	-68.754	
559.200	-51.933	
559.300	-57.993	
559.400	-55.195	
559.500	-53.791	
559.600	-71.567	
559.700	-56.218	
559.800	-44.030	
559.900	-56.698	
560.000	-31.701	
560.100	-45.745	
560.200	-59.450	
560.300	-58.252	
560.400	-46.086	
560.500	-60.093	
560.600	-56.418	
560.700	-50.284	
560.800	-45.860	
560.900	-56.978	
561.000	-45.981	
561.100	-37.411	
561.200	-54.782	
561.300	-70.516	
561.400	-43.083	
561.500	-50.186	
561.600	-47.816	
561.700	-47.714	
561.800	-49.669	
561.900	-42.954	
562.000	-51.991	
562.100	-47.076	
562.200	-51.907	
562.300	-51.046	
562.400	-49.576	
562.500	-56.942	
562.600	-49.351	
562.700	-37.086	
562.800	-48.902	
562.900	-48.718	
563.000	-47.792	
563.100	-43.555	
563.200	-43.475	
563.300	-46.802	
563.400	-50.902	
563.500	-52.284	
563.600	-50.727	
563.700	-46.007	
563.800	-70.003	
563.900	-33.911	
564.000	-56.084	
564.100	-49.676	
564.200	-42.176	
564.300	-48.226	
564.400	-44.665	
564.500	-63.620	
564.600	-27.846	
564.700	-50.019	
564.800	-21.431	
564.900	-54.088	
565.000	-30.887	
565.100	-46.290	
565.200	-39.652	
565.300	-44.951	
565.400	-28.635	
565.500	-45.474	
565.600	-60.912	
565.700	-50.008	
565.800	-65.720	
565.900	-38.427	
566.000	-51.136	
566.100	-48.317	
566.200	-47.680	
566.300	-45.358	
566.400	-46.244	
566.500	-42.268	
566.600	-50.156	
566.700	-36.799	
566.800	-48.515	
566.900	-24.027	
567.000	-42.530	
567.100	-49.976	
567.200	-31.879	
567.300	-53.120	
567.400	-35.207	
567.500	-46.431	
567.600	-46.826	
567.700	-44.369	
567.800	-43.105	
567.900	-37.803	
568.000	-36.133	
568.100	-45.078	
568.200	-49.660	
568.300	-39.015	
568.400	-31.462	
568.500	-43.014	
568.600	-39.799	
568.700	-53.747	
568.800	-37.827	
568.900	-46.752	
569.000	-39.329	
569.100	-38.704	
569.200	-31.450	
569.300	-41.872	
569.400	-42.587	
569.500	-39.209	
569.600	-32.771	
569.700	-42.695	
569.800	-41.891	
569.900	-52.801	
570.000	-31.792	
570.100	-53.852	
570.200	-36.559	
570.300	-41.205	
570.400	-35.881	
570.500	-47.842	
570.600	-47.955	
570.700	-29.236	
570.800	-30.424	
570.900	-57.345	
571.000	-31.491	
571.100	-36.526	
571.200	-42.588	
571.300	-33.060	
571.400	-40.569	
571.500	-22.428	
571.600	-45.181	
571.700	-32.105	
571.800	-42.295	
571.900	-34.078	
572.000	-32.395	
572.100	-31.024	
572.200	-32.448	
572.300	-38.501	
572.400	-22.026	
572.500	-47.220	
572.600	-53.677	
572.700	-31.180	
572.800	-39.050	
572.900	-38.295	
573.000	-29.281	
573.100	-49.998	
573.200	-51.566	
573.300	-38.376	
573.400	-47.658	
573.500	-40.555	
573.600	-35.737	
573.700	-29.103	
573.800	-37.890	
573.900	-32.398	
574.000	-31.711	
574.100	-39.065	
574.200	-40.175	
574.300	-20.430	
574.400	-39.799	
574.500	-41.376	
574.600	-44.020	
574.700	-30.972	
574.800	-32.104	
574.900	-28.056	
575.000	-49.237	
575.100	-34.455	
575.200	-40.973	
575.300	-28.145	
575.400	-26.881	
575.500	-40.662	
575.600	-37.736	
575.700	-40.102	
575.800	-47.658	
575.900	-32.056	
576.000	-24.417	
576.100	-47.094	
576.200	-28.510	
576.300	-41.820	
576.400	-34.480	
576.500	-31.536	
576.600	-42.989	
576.700	-23.784	
576.800	-45.737	
576.900	-35.366	
577.000	-41.740	
577.100	-27.713	
577.200	-24.236	
577.300	-33.111	
577.400	-31.038	
577.500	-36.092	
577.600	-29.021	
577.700	-42.565	
577.800	-32.427	
577.900	-35.609	
578.000	-40.948	
578.100	-24.930	
578.200	-34.487	
578.300	-29.286	
578.400	-23.661	
578.500	-46.537	
578.600	-18.822	
578.700	-40.170	
578.800	-30.806	
578.900	-28.138	
579.000	-37.638	
579.100	-26.261	
579.200	-36.650	
579.300	-29.787	
579.400	-27.656	
579.500	-32.273	
579.600	-23.175	
579.700	-28.921	
579.800	-36.979	
579.900	-23.225	
580.000	-46.014	
580.100	-41.462	
580.200	-27.441	
580.300	-30.033	
580.400	-40.146	
580.500	-35.671	
580.600	-27.765	
580.700	-29.110	
580.800	-46.413	
580.900	-27.029	
581.000	-25.227	
581.100	-25.708	
581.200	-32.440	
581.300	-42.949	
581.400	-34.647	
581.500	-36.106	
581.600	-29.534	
581.700	-23.000	
581.800	-46.622	
581.900	-33.681	
582.000	-27.233	
582.100	-23.003	
582.200	-31.772	
582.300	-35.370	
582.400	-43.441	
582.500	-29.251	
582.600	-43.529	
582.700	-39.334	
582.800	-24.109	
582.900	-23.839	
583.000	-32.414	
583.100	-30.559	
583.200	-24.881	
583.300	-24.213	
583.400	-27.294	
583.500	-23.781	
583.600	-39.687	
583.700	-29.446	
583.800	-32.200	
583.900	-46.393	
584.000	-33.462	
584.100	-23.789	
584.200	-29.124	
584.300	-37.017	
584.400	-17.693	
584.500	-32.102	
584.600	-27.773	
584.700	-16.662	
584.800	-31.345	
584.900	-29.883	
585.000	-36.332	
585.100	-19.505	
585.200	-38.217	
585.300	-27.788	
585.400	-18.046	
585.500	-44.393	
585.600	-30.908	
585.700	-30.079	
585.800	-18.234	
585.900	-52.427	
586.000	-31.099	
586.100	-27.455	
586.200	-32.269	
586.300	-34.211	
586.400	-32.928	
586.500	-37.650	
586.600	-29.107	
586.700	-20.001	
586.800	-29.258	
586.900	-27.328	
587.000	-35.048	
587.100	-31.097	
587.200	-16.039	
587.300	-37.846	
587.400	-37.263	
587.500	-26.964	
587.600	-26.035	
587.700	-30.702	
587.800	-25.349	
587.900	-33.919	
588.000	-25.544	
588.100	-29.464	
588.200	-27.194	
588.300	-35.692	
588.400	-24.269	
588.500	-29.582	
588.600	-46.509	
588.700	-29.079	
588.800	-8.777	
588.900	-26.175	
589.000	-24.039	
589.100	-27.950	
589.200	-30.633	
589.300	-36.813	
589.400	-29.153	
589.500	-43.870	
589.600	-39.453	
589.700	-16.909	
589.800	-38.290	
589.900	-19.638	
590.000	-26.107	
590.100	-38.445	
590.200	-15.589	
590.300	-39.932	
590.400	-27.363	
590.500	-25.931	
590.600	-39.116	
590.700	-28.389	
590.800	-20.328	
590.900	-39.999	
591.000	-8.894	
591.100	-33.677	
591.200	-41.296	
591.300	-12.820	
591.400	-38.798	
591.500	-21.000	
591.600	-21.863	
591.700	-23.836	
591.800	-34.529	
591.900	-34.448	
592.000	-35.181	
592.100	-18.447	
592.200	-22.810	
592.300	-31.264	
592.400	-24.731	
592.500	-46.173	
592.600	-14.361	
592.700	-10.219	
592.800	-33.624	
592.900	-28.452	
593.000	-42.730	
593.100	-36.930	
593.200	-12.237	
593.300	-37.931	
593.400	-24.181	
593.500	-21.119	
593.600	-16.581	
593.700	-51.735	
593.800	-15.109	
593.900	-14.786	
594.000	-47.141	
594.100	-15.503	
594.200	-30.862	
594.300	-22.247	
594.400	-23.656	
594.500	-15.219	
594.600	-36.263	
594.700	-30.404	
594.800	-43.754	
594.900	-18.628	
595.000	-42.433	
595.100	-31.838	
595.200	-13.048	
595.300	-27.410	
595.400	-30.230	
595.500	-38.253	
595.600	-20.799	
595.700	-20.471	
595.800	-15.712	
595.900	-22.517	
596.000	-34.240	
596.100	-25.893	
596.200	-26.355	
596.300	-27.412	
596.400	-27.352	
596.500	-36.886	
596.600	-23.923	
596.700	-20.384	
596.800	-31.677	
596.900	-23.105	
597.000	-22.696	
597.100	-25.080	
597.200	-21.140	
597.300	-17.676	
597.400	-20.790	
597.500	-46.244	
597.600	-29.769	
597.700	-29.228	
597.800	-26.503	
597.900	-30.268	
598.000	-21.986	
598.100	-19.748	
598.200	-31.260	
598.300	-17.892	
598.400	-21.075	
598.500	-22.201	
598.600	-25.418	
598.700	-12.812	
598.800	-36.578	
598.900	-20.055	
599.000	-29.040	
599.100	-19.705	
599.200	-36.422	
599.300	-28.768	
599.400	-26.720	
599.500	-31.933	
599.600	-22.491	
599.700	-30.833	
599.800	-22.466	
599.900	-30.703	
600.000	-14.651	
600.100	-11.786	
600.200	-20.642	
600.300	-28.687	
600.400	-27.504	
600.500	-41.819	
600.600	-25.100	
600.700	-21.267	
600.800	-29.545	
600.900	-32.273	
601.000	-30.810	
601.100	-31.129	
601.200	-26.149	
601.300	-16.486	
601.400	-23.275	
601.500	-27.303	
601.600	-24.132	
601.700	-24.922	
601.800	-29.603	
601.900	-45.295	
602.000	-22.204	
602.100	-21.818	
602.200	-23.009	
602.300	-17.348	
602.400	-7.320	
602.500	-15.865	
602.600	-2.954	
602.700	-22.240	
602.800	-18.903	
602.900	-27.223	
603.000	-15.530	
603.100	-33.915	
603.200	-26.386	
603.300	-32.977	
603.400	-14.668	
603.500	-19.684	
603.600	-23.652	
603.700	-37.659	
603.800	-30.536	
603.900	-6.764	
604.000	-17.135	
604.100	-14.634	
604.200	-45.296	
604.300	-21.124	
604.400	-26.736	
604.500	-14.097	
604.600	-30.888	
604.700	-46.015	
604.800	-28.877	
604.900	-24.903	
605.000	-7.471	
605.100	-15.885	
605.200	-20.546	
605.300	-26.680	
605.400	-19.925	
605.500	-32.550	
605.600	-28.653	
605.700	-22.293	
605.800	-13.482	
605.900	-16.278	
606.000	-31.024	
606.100	-31.442	
606.200	-25.799	
606.300	-21.267	
606.400	-17.558	
606.500	-18.155	
606.600	-29.963	
606.700	-25.143	
606.800	-32.591	
606.900	-25.105	
607.000	-18.268	
607.100	-22.433	
607.200	-18.077	
607.300	-8.264	
607.400	-16.400	
607.500	-17.314	
607.600	-41.354	
607.700	-24.963	
607.800	-14.253	
607.900	-25.394	
608.000	-18.414	
608.100	-27.708	
608.200	-26.416	
608.300	-26.669	
608.400	-16.461	
608.500	-26.882	
608.600	-26.777	
608.700	-30.539	
608.800	-18.619	
608.900	-7.684	
609.000	-34.827	
609.100	-18.517	
609.200	-25.005	
609.300	-24.730	
609.400	-20.489	
609.500	-13.475	
609.600	-14.937	
609.700	-40.303	
609.800	-7.444	
609.900	-16.436	
610.000	-31.528	
610.100	-14.025	
610.200	-26.448	
610.300	-27.837	
610.400	-13.986	
610.500	-15.066	
610.600	-16.834	
610.700	-36.103	
610.800	-21.423	
610.900	-26.869	
611.000	-13.443	
611.100	-26.621	
611.200	-17.730	
611.300	-28.030	
611.400	-26.655	
611.500	-25.761	
611.600	-26.191	
611.700	-11.611	
611.800	-21.238	
611.900	-30.694	
612.000	-20.724	
612.100	-26.497	
612.200	-27.602	
612.300	-34.442	
612.400	-20.590	
612.500	-23.009	
612.600	-21.701	
612.700	-26.238	
612.800	-24.836	
612.900	-17.802	
613.000	-15.472	
613.100	-21.674	
613.200	-12.196	
613.300	-36.967	
613.400	-8.054	
613.500	-38.697	
613.600	-32.840	
613.700	-12.550	
613.800	-20.660	
613.900	-19.533	
614.000	-18.706	
614.100	-19.292	
614.200	-33.317	
614.300	-14.551	
614.400	-16.309	
614.500	-23.868	
614.600	-6.983	
614.700	-24.765	
614.800	-28.968	
614.900	-27.506	
615.000	-16.631	
615.100	-9.792	
615.200	-28.879	
615.300	-11.962	
615.400	-22.236	
615.500	-19.776	
615.600	-19.048	
615.700	-30.447	
615.800	-9.598	
615.900	-24.126	
616.000	-9.081	
616.100	-20.058	
616.200	-25.374	
616.300	-16.401	
616.400	-30.120	
616.500	-9.424	
616.600	-42.261	
616.700	-31.428	
616.800	-18.632	
616.900	-11.943	
617.000	-12.073	
617.100	-18.328	
617.200	-16.432	
617.300	-14.647	
617.400	-25.909	
617.500	-21.404	
617.600	-14.470	
617.700	-18.115	
617.800	-23.852	
617.900	-23.820	
618.000	-19.127	
618.100	-9.785	
618.200	-19.452	
618.300	-0.626	
618.400	-40.747	
618.500	-19.545	
618.600	-28.787	
618.700	-32.450	
618.800	-25.817	
618.900	-20.787	
619.000	-18.594	
619.100	-18.019	
619.200	-26.612	
619.300	-28.008	
619.400	-17.103	
619.500	-23.582	
619.600	-18.476	
619.700	-27.312	
619.800	-14.340	
619.900	-13.111	
620.000	-26.253	
620.100	-28.288	
620.200	-26.156	
620.300	-16.747	
620.400	-12.240	
620.500	-22.024	
620.600	-16.865	
620.700	-22.182	
620.800	-13.006	
620.900	-32.120	
621.000	-26.049	
621.100	-4.681	
621.200	-18.023	
621.300	-25.879	
621.400	-21.684	
621.500	-4.810	
621.600	-16.189	
621.700	-39.164	
621.800	-10.751	
621.900	-20.246	
622.000	-37.931	
622.100	-20.351	
622.200	-16.850	
622.300	-32.783	
622.400	-20.566	
622.500	-11.223	
622.600	-18.231	
622.700	-15.241	
622.800	-35.217	
622.900	-10.854	
623.000	-20.579	
623.100	-16.913	
623.200	-18.228	
623.300	-21.846	
623.400	-37.326	
623.500	-8.811	
623.600	-13.052	
623.700	-21.987	
623.800	-16.425	
623.900	-38.876	
624.000	-17.142	
624.100	-16.016	
624.200	-26.527	
624.300	-18.148	
624.400	-29.869	
624.500	-16.509	
624.600	-23.264	
624.700	-19.483	
624.800	-19.852	
624.900	-23.003	
625.000	-22.064	
625.100	-20.643	
625.200	-18.825	
625.300	-37.304	
625.400	-14.772	
625.500	-19.773	
625.600	-34.313	
625.700	1.576	
625.800	-18.260	
625.900	-10.088	
626.000	-28.541	
626.100	-24.205	
626.200	-35.232	
626.300	-5.349	
626.400	-23.823	
626.500	-18.786	
626.600	-17.134	
626.700	-2.647	
626.800	-32.090	
626.900	-21.786	
627.000	-9.762	
627.100	-21.726	
627.200	-22.031	
627.300	-26.882	
627.400	-24.403	
627.500	-5.037	
627.600	-11.044	
627.700	-21.842	
627.800	-17.209	
627.900	-14.543	
628.000	-16.483	
628.100	-5.971	
628.200	-29.729	
628.300	-22.061	
628.400	-8.129	
628.500	-19.895	
628.600	-24.353	
628.700	-27.764	
628.800	-17.280	
628.900	-10.476	
629.000	-14.205	
629.100	4.445	
629.200	-14.276	
629.300	-22.445	
629.400	-26.228	
629.500	-20.475	
629.600	-19.218	
629.700	-20.328	
629.800	-25.755	
629.900	-6.823	
630.000	-1.184	
630.100	8.635	
630.200	34.582	
630.300	41.115	
630.400	56.215	
630.500	62.349	
630.600	62.243	
630.700	81.668	
630.800	81.889	
630.900	80.482	
631.000	80.223	
631.100	72.907	
631.200	84.955	
631.300	84.916	
631.400	73.079	
631.500	90.467	
631.600	65.978	
631.700	67.669	
631.800	75.876	
631.900	64.102	
632.000	68.991	
632.100	71.154	
632.200	74.781	
632.300	58.941	
632.400	64.507	
632.500	80.896	
632.600	62.058	
632.700	64.880	
632.800	68.673	
632.900	61.558	
633.000	61.663	
633.100	51.289	
633.200	71.245	
633.300	65.385	
633.400	58.145	
633.500	50.091	
633.600	49.866	
633.700	54.239	
633.800	55.656	
633.900	54.932	
634.000	57.673	
634.100	64.712	
634.200	58.930	
634.300	63.066	
634.400	72.462	
634.500	49.064	
634.600	63.000	
634.700	54.096	
634.800	71.728	
634.900	72.954	
635.000	82.215	
635.100	80.851	
635.200	70.053	
635.300	84.443	
635.400	85.490	
635.500	80.045	
635.600	83.018	
635.700	83.637	
635.800	93.206	
635.900	91.249	
636.000	86.666	
636.100	93.247	
636.200	74.532	
636.300	77.704	
636.400	84.545	
636.500	91.481	
636.600	72.968	
636.700	100.697	
636.800	96.837	
636.900	76.192	
637.000	89.192	
637.100	101.835	
637.200	76.038	
637.300	86.786	
637.400	86.793	
637.500	95.860	
637.600	102.382	
637.700	90.654	
637.800	96.148	
637.900	95.828	
638.000	83.885	
638.100	86.988	
638.200	100.695	
638.300	97.369	
638.400	93.609	
638.500	91.193	
638.600	92.704	
638.700	82.414	
638.800	88.597	
638.900	105.728	
639.000	85.077	
639.100	95.275	
639.200	91.422	
639.300	101.580	
639.400	88.146	
639.500	90.965	
639.600	109.601	
639.700	91.861	
639.800	86.662	
639.900	112.558	
640.000	107.517	
640.100	100.029	
640.200	86.623	
640.300	104.160	
640.400	103.265	
640.500	95.142	
640.600	95.633	
640.700	103.011	
640.800	98.419	
640.900	95.331	
641.000	95.958	
641.100	105.823	
641.200	84.717	
641.300	86.954	
641.400	82.958	
641.500	105.103	
641.600	78.558	
641.700	101.235	
641.800	97.323	
641.900	106.072	
642.000	97.382	
642.100	95.575	
642.200	95.932	
642.300	98.687	
642.400	101.172	
642.500	96.108	
642.600	105.103	
642.700	91.910	
642.800	106.834	
642.900	75.050	
643.000	101.302	
643.100	108.699	
643.200	94.417	
643.300	101.159	
643.400	98.572	
643.500	110.701	
643.600	99.743	
643.700	101.073	
643.800	98.069	
643.900	102.959	
644.000	91.247	
644.100	94.655	
644.200	91.865	
644.300	97.498	
644.400	95.486	
644.500	98.563	
644.600	97.928	
644.700	92.431	
644.800	102.046	
644.900	79.199	
645.000	85.732	
645.100	98.896	
645.200	106.290	
645.300	90.212	
645.400	98.841	
645.500	85.551	
645.600	84.232	
645.700	86.999	
645.800	96.981	
645.900	94.740	
646.000	97.079	
646.100	95.554	
646.200	94.767	
646.300	93.378	
646.400	88.689	
646.500	102.353	
646.600	103.790	
646.700	89.303	
646.800	97.098	
646.900	76.349	
647.000	92.429	
647.100	92.865	
647.200	90.240	
647.300	85.834	
647.400	104.700	
647.500	92.625	
647.600	92.446	
647.700	86.595	
647.800	85.243	
647.900	87.433	
648.000	87.624	
648.100	85.319	
648.200	81.316	
648.300	106.519	
648.400	94.702	
648.500	79.755	
648.600	84.169	
648.700	88.561	
648.800	84.949	
648.900	84.797	
649.000	85.986	
649.100	91.231	
649.200	87.757	
649.300	82.451	
649.400	90.747	
649.500	74.237	
649.600	89.450	
649.700	98.778	
649.800	65.235	
649.900	79.302	
650.000	88.825	
650.100	79.342	
650.200	104.274	
650.300	83.631	
650.400	91.143	
650.500	89.200	
650.600	72.846	
650.700	91.521	
650.800	91.764	
650.900	79.761	
651.000	82.265	
651.100	92.114	
651.200	84.213	
651.300	85.161	
651.400	68.035	
651.500	80.968	
651.600	85.313	
651.700	82.592	
651.800	84.720	
651.900	72.797	
652.000	73.912	
652.100	78.660	
652.200	77.383	
652.300	99.372	
652.400	77.571	
652.500	77.277	
652.600	82.098	
652.700	91.508	
652.800	73.266	
652.900	78.091	
653.000	76.361	
653.100	83.763	
653.200	78.668	
653.300	83.775	
653.400	74.932	
653.500	78.563	
653.600	77.585	
653.700	74.364	
653.800	80.274	
653.900	84.067	
654.000	83.852	
654.100	86.437	
654.200	73.114	
654.300	90.338	
654.400	73.160	
654.500	72.668	
654.600	71.272	
654.700	77.194	
654.800	74.903	
654.900	76.069	
655.000	84.043	
655.100	77.965	
655.200	77.970	
655.300	80.101	
655.400	86.582	
655.500	83.736	
655.600	70.542	
655.700	77.001	
655.800	91.677	
655.900	70.164	
656.000	78.327	
656.100	76.578	
656.200	81.621	
656.300	70.894	
656.400	68.564	
656.500	80.482	
656.600	91.042	
656.700	79.143	
656.800	88.051	
656.900	75.980	
657.000	69.497	
657.100	75.443	
657.200	88.547	
657.300	78.800	
657.400	77.206	
657.500	61.979	
657.600	93.661	
657.700	78.166	
657.800	68.757	
657.900	70.474	
658.000	75.251	
658.100	78.089	
658.200	84.510	
658.300	68.084	
658.400	71.752	
658.500	85.793	
658.600	93.320	
658.700	85.896	
658.800	90.929	
658.900	70.459	
659.000	71.333	
659.100	75.996	
659.200	89.278	
659.300	69.501	
659.400	96.838	
659.500	85.442	
659.600	71.770	
659.700	88.517	
659.800	80.104	
659.900	90.724	
660.000	92.835	
660.100	82.817	
660.200	82.432	
660.300	94.484	
660.400	93.971	
660.500	86.886	
660.600	69.025	
660.700	87.100	
660.800	90.686	
660.900	95.126	
661.000	88.952	
661.100	92.216	
661.200	96.996	
661.300	89.178	
661.400	76.949	
661.500	84.123	
661.600	97.217	
661.700	95.776	
661.800	76.843	
661.900	85.084	
662.000	88.070	
662.100	91.857	
662.200	88.771	
662.300	92.294	
662.400	85.219	
662.500	88.716	
662.600	94.712	
662.700	86.701	
662.800	89.590	
662.900	83.087	
663.000	93.886	
663.100	91.489	
663.200	97.845	
663.300	80.315	
663.400	80.014	
663.500	90.326	
663.600	90.902	
663.700	103.815	
663.800	84.109	
663.900	91.895	
664.000	73.632	
664.100	90.530	
664.200	89.145	
664.300	90.513	
664.400	90.855	
664.500	90.068	
664.600	104.930	
664.700	75.223	
664.800	88.171	
664.900	101.925	
665.000	88.544	
665.100	99.681	
665.200	97.992	
665.300	82.406	
665.400	80.563	
665.500	88.294	
665.600	98.776	
665.700	89.695	
665.800	97.371	
665.900	88.998	
666.000	100.389	
666.100	100.985	
666.200	113.253	
666.300	91.032	
666.400	97.587	
666.500	80.866	
666.600	99.891	
666.700	101.320	
666.800	102.847	
666.900	98.034	
667.000	99.357	
667.100	94.364	
667.200	113.676	
667.300	85.079	
667.400	108.949	
667.500	106.175	
667.600	100.516	
667.700	78.422	
667.800	92.667	
667.900	104.709	
668.000	101.683	
668.100	99.303	
668.200	97.564	
668.300	90.017	
668.400	99.904	
668.500	99.900	
668.600	93.323	
668.700	100.070	
668.800	101.666	
668.900	92.038	
669.000	89.611	
669.100	99.590	
669.200	105.735	
669.300	105.174	
669.400	88.460	
669.500	104.337	
669.600	100.948	
669.700	89.116	
669.800	101.682	
669.900	84.982	
670.000	86.758	
670.100	97.406	
670.200	109.574	
670.300	98.933	
670.400	87.637	
670.500	79.338	
670.600	112.464	
670.700	96.339	
670.800	111.340	
670.900	90.679	
671.000	101.064	
671.100	103.807	
671.200	95.040	
671.300	77.668	
671.400	85.760	
671.500	102.243	
671.600	99.415	
671.700	93.918	
671.800	81.947	
671.900	98.058	
672.000	112.636	
672.100	90.281	
672.200	100.304	
672.300	101.800	
672.400	96.242	
672.500	93.041	
672.600	108.159	
672.700	107.866	
672.800	97.190	
672.900	107.887	
673.000	95.775	
673.100	100.895	
673.200	105.065	
673.300	88.797	
673.400	108.304	
673.500	103.842	
673.600	94.667	
673.700	89.456	
673.800	79.912	
673.900	96.100	
674.000	95.539	
674.100	97.300	
674.200	83.551	
674.300	89.360	
674.400	98.427	
674.500	85.616	
674.600	105.801	
674.700	94.259	
674.800	93.367	
674.900	91.300	
675.000	101.603	
675.100	101.805	
675.200	96.959	
675.300	94.818	
675.400	91.113	
675.500	86.290	
675.600	104.127	
675.700	100.408	
675.800	103.932	
675.900	90.733	
676.000	91.429	
676.100	98.286	
676.200	97.315	
676.300	87.175	
676.400	96.696	
676.500	93.536	
676.600	100.045	
676.700	78.110	
676.800	92.754	
676.900	99.119	
677.000	92.124	
677.100	96.997	
677.200	92.838	
677.300	87.580	
677.400	91.905	
677.500	84.653	
677.600	93.682	
677.700	90.344	
677.800	84.542	
677.900	98.038	
678.000	96.610	
678.100	87.442	
678.200	90.750	
678.300	89.250	
678.400	84.335	
678.500	92.287	
678.600	99.478	
678.700	97.687	
678.800	87.195	
678.900	75.686	
679.000	89.460	
679.100	110.040	
679.200	82.193	
679.300	83.192	
679.400	89.482	
679.500	94.071	
679.600	99.579	
679.700	84.867	
679.800	79.860	
679.900	85.833	
680.000	75.741	
680.100	89.726	
680.200	85.269	
680.300	95.231	
680.400	101.531	
680.500	91.037	
680.600	96.306	
680.700	94.152	
680.800	92.600	
680.900	87.953	
681.000	81.400	
681.100	84.393	
681.200	95.117	
681.300	82.993	
681.400	93.405	
681.500	88.700	
681.600	84.809	
681.700	88.400	
681.800	90.787	
681.900	72.095	
682.000	76.736	
682.100	95.008	
682.200	88.166	
682.300	85.098	
682.400	94.143	
682.500	80.118	
682.600	88.474	
682.700	86.668	
682.800	78.165	
682.900	91.536	
683.000	87.848	
683.100	87.715	
683.200	85.158	
683.300	94.391	
683.400	89.575	
683.500	90.817	
683.600	80.789	
683.700	81.536	
683.800	78.890	
683.900	81.087	
684.000	79.161	
684.100	93.435	
684.200	100.090	
684.300	79.978	
684.400	84.544	
684.500	72.745	
684.600	75.806	
684.700	95.714	
684.800	98.188	
684.900	72.156	
685.000	84.019	
685.100	86.567	
685.200	97.231	
685.300	79.915	
685.400	73.411	
685.500	90.828	
685.600	78.184	
685.700	92.154	
685.800	75.357	
685.900	82.186	
686.000	76.822	
686.100	77.579	
686.200	79.516	
686.300	90.907	
686.400	68.415	
686.500	88.091	
686.600	78.339	
686.700	84.994	
686.800	77.154	
686.900	82.845	
687.000	79.668	
687.100	82.585	
687.200	87.099	
687.300	77.378	
687.400	90.542	
687.500	86.926	
687.600	87.030	
687.700	63.617	
687.800	81.851	
687.900	81.455	
688.000	77.983	
688.100	88.740	
688.200	86.230	
688.300	66.868	
688.400	72.556	
688.500	100.386	
688.600	83.737	
688.700	86.024	
688.800	85.397	
688.900	78.101	
689.000	66.473	
689.100	77.692	
689.200	90.254	
689.300	74.034	
689.400	80.552	
689.500	68.470	
689.600	75.326	
689.700	75.473	
689.800	66.959	
689.900	75.407	
690.000	72.681	
690.100	71.631	
690.200	55.728	
690.300	33.852	
690.400	24.822	
690.500	4.461	
690.600	-7.757	
690.700	-19.186	
690.800	-29.469	
690.900	-18.338	
691.000	-47.477	
691.100	-41.171	
691.200	-74.918	
691.300	-66.475	
691.400	-92.746	
691.500	-101.931	
691.600	-89.810	
691.700	-95.254	
691.800	-104.343	
691.900	-117.958	
692.000	-121.878	
692.100	-124.298	
692.200	-120.701	
692.300	-129.816	
692.400	-126.066	
692.500	-127.235	
692.600	-132.311	
692.700	-150.369	
692.800	-134.488	
692.900	-144.366	
693.000	-133.501	
693.100	-140.036	
693.200	-132.941	
693.300	-134.857	
693.400	-138.780	
693.500	-137.694	
693.600	-131.821	
693.700	-133.830	
693.800	-147.794	
693.900	-137.755	
694.000	-131.463	
694.100	-134.271	
694.200	-146.726	
694.300	-130.493	
694.400	-143.248	
694.500	-140.122	
694.600	-132.681	
694.700	-127.804	
694.800	-131.490	
694.900	-129.911	
695.000	-127.248	
695.100	-130.661	
695.200	-119.881	
695.300	-114.369	
695.400	-123.445	
695.500	-116.901	
695.600	-118.708	
695.700	-104.889	
695.800	-110.919	
695.900	-117.472	
696.000	-115.109	
696.100	-102.958	
696.200	-106.013	
696.300	-106.315	
696.400	-98.912	
696.500	-113.599	
696.600	-84.886	
696.700	-87.125	
696.800	-122.199	
696.900	-114.761	
697.000	-86.128	
697.100	-97.628	
697.200	-91.652	
697.300	-98.202	
697.400	-85.035	
697.500	-91.800	
697.600	-98.361	
697.700	-92.945	
697.800	-94.266	
697.900	-92.848	
698.000	-87.381	
698.100	-81.345	
698.200	-90.442	
698.300	-80.866	
698.400	-93.861	
698.500	-74.503	
698.600	-103.059	
698.700	-89.727	
698.800	-89.861	
698.900	-77.833	
699.000	-78.389	
699.100	-87.313	
699.200	-77.357	
699.300	-89.965	
699.400	-80.454	
699.500	-86.171	
699.600	-94.194	
699.700	-76.950	
699.800	-76.308	
699.900	-66.244	
700.000	-83.441	
700.100	-70.126	
700.200	-85.594	
700.300	-67.648	
700.400	-79.382	
700.500	-78.264	
700.600	-68.286	
700.700	-82.166	
700.800	-71.586	
700.900	-66.329	
701.000	-75.562	
701.100	-71.386	
701.200	-63.119	
701.300	-88.158	
701.400	-84.582	
701.500	-63.885	
701.600	-69.903	
701.700	-74.511	
701.800	-78.884	
701.900	-76.098	
702.000	-62.290	
702.100	-73.435	
702.200	-63.535	
702.300	-68.999	
702.400	-71.184	
702.500	-73.340	
702.600	-81.659	
702.700	-67.295	
702.800	-59.404	
702.900	-63.292	
703.000	-68.803	
703.100	-76.147	
703.200	-73.475	
703.300	-55.168	
703.400	-78.180	
703.500	-67.169	
703.600	-65.687	
703.700	-67.297	
703.800	-61.603	
703.900	-86.247	
704.000	-63.266	
704.100	-65.669	
704.200	-76.770	
704.300	-65.626	
704.400	-54.000	
704.500	-70.515	
704.600	-63.518	
704.700	-60.684	
704.800	-51.197	
704.900	-66.693	
705.000	-72.698	
705.100	-55.384	
705.200	-62.167	
705.300	-64.604	
705.400	-54.004	
705.500	-61.137	
705.600	-74.113	
705.700	-72.125	
705.800	-50.335	
705.900	-62.497	
706.000	-58.392	
706.100	-71.891	
706.200	-65.116	
706.300	-59.428	
706.400	-59.533	
706.500	-64.268	
706.600	-72.510	
706.700	-62.796	
706.800	-58.124	
706.900	-81.887	
707.000	-35.394	
707.100	-54.642	
707.200	-63.813	
707.300	-70.051	
707.400	-71.282	
707.500	-55.229	
707.600	-47.439	
707.700	-53.357	
707.800	-65.463	
707.900	-62.183	
708.000	-59.954	
708.100	-57.969	
708.200	-78.054	
708.300	-63.455	
708.400	-51.849	
708.500	-53.917	
708.600	-60.168	
708.700	-64.359	
708.800	-51.190	
708.900	-61.063	
709.000	-75.167	
709.100	-67.059	
709.200	-63.096	
709.300	-62.678	
709.400	-64.727	
709.500	-45.166	
709.600	-56.648	
709.700	-62.286	
709.800	-52.559	
709.900	-49.949	
710.000	-75.776	
710.100	-55.130	
710.200	-65.899	
710.300	-56.656	
710.400	-53.798	
710.500	-62.687	
710.600	-44.212	
710.700	-64.661	
710.800	-56.901	
710.900	-50.503	
711.000	-55.083	
711.100	-43.728	
711.200	-74.693	
711.300	-42.142	
711.400	-51.925	
711.500	-78.806	
711.600	-45.754	
711.700	-58.904	
711.800	-42.797	
711.900	-57.744	
712.000	-59.298	
712.100	-53.087	
712.200	-38.016	
712.300	-65.480	
712.400	-51.707	
712.500	-50.882	
712.600	-49.736	
712.700	-50.763	
712.800	-58.755	
712.900	-41.155	
713.000	-58.298	
713.100	-48.114	
713.200	-46.325	
713.300	-47.423	
713.400	-47.244	
713.500	-54.903	
713.600	-40.196	
713.700	-56.655	
713.800	-47.681	
713.900	-54.923	
714.000	-49.074	
714.100	-63.759	
714.200	-50.073	
714.300	-51.653	
714.400	-37.499	
714.500	-52.415	
714.600	-53.856	
714.700	-51.000	
714.800	-52.173	
714.900	-51.093	
715.000	-57.940	
715.100	-45.289	
715.200	-46.240	
715.300	-43.510	
715.400	-48.174	
715.500	-49.410	
715.600	-54.085	
715.700	-50.301	
715.800	-41.070	
715.900	-49.496	
716.000	-57.638	
716.100	-45.468	
716.200	-44.795	
716.300	-45.007	
716.400	-71.292	
716.500	-42.829	
716.600	-44.826	
716.700	-40.140	
716.800	-33.339	
716.900	-50.167	
717.000	-40.351	
717.100	-48.726	
717.200	-57.312	
717.300	-30.695	
717.400	-48.913	
717.500	-52.717	
717.600	-43.932	
717.700	-41.853	
717.800	-44.655	
717.900	-58.152	
718.000	-53.336	
718.100	-52.389	
718.200	-48.506	
718.300	-53.340	
718.400	-53.422	
718.500	-63.557	
718.600	-35.428	
718.700	-31.226	
718.800	-46.698	
718.900	-51.794	
719.000	-51.110	
719.100	-45.081	
719.200	-38.122	
719.300	-35.713	
719.400	-47.784	
719.500	-44.453	
719.600	-42.356	
719.700	-55.379	
719.800	-28.804	
719.900	-62.096	
720.000	-33.261	
720.100	-34.174	
720.200	-54.037	
720.300	-42.319	
720.400	-45.421	
720.500	-35.528	
720.600	-34.244	
720.700	-55.746	
720.800	-31.750	
720.900	-42.061	
721.000	-49.307	
721.100	-49.120	
721.200	-32.126	
721.300	-34.975	
721.400	-35.508	
721.500	-43.191	
721.600	-24.378	
721.700	-42.450	
721.800	-55.119	
721.900	-40.623	
722.000	-38.453	
722.100	-48.043	
722.200	-42.869	
722.300	-26.511	
722.400	-51.488	
722.500	-35.442	
722.600	-51.259	
722.700	-38.110	
722.800	-41.942	
722.900	-50.785	
723.000	-34.602	
723.100	-32.639	
723.200	-32.091	
723.300	-36.710	
723.400	-37.459	
723.500	-45.853	
723.600	-45.399	
723.700	-41.291	
723.800	-38.755	
723.900	-40.018	
724.000	-39.544	
724.100	-36.957	
724.200	-38.137	
724.300	-44.795	
724.400	-36.331	
724.500	-40.080	
724.600	-38.801	
724.700	-44.486	
724.800	-28.691	
724.900	-35.739	
725.000	-35.298	
725.100	-37.834	
725.200	-29.681	
725.300	-38.864	
725.400	-37.595	
725.500	-50.973	
725.600	-39.557	
725.700	-30.710	
725.800	-32.140	
725.900	-56.776	
726.000	-33.891	
726.100	-46.602	
726.200	-35.812	
726.300	-44.975	
726.400	-31.664	
726.500	-55.175	
726.600	-41.585	
726.700	-32.666	
726.800	-29.652	
726.900	-38.119	
727.000	-28.365	
727.100	-44.071	
727.200	-42.452	
727.300	-31.092	
727.400	-28.200	
727.500	-42.725	
727.600	-40.862	
727.700	-40.652	
727.800	-45.155	
727.900	-24.500	
728.000	-44.900	
728.100	-41.582	
728.200	-28.261	
728.300	-29.547	
728.400	-55.705	
728.500	-43.979	
728.600	-34.629	
728.700	-26.704	
728.800	-33.577	
728.900	-37.471	
729.000	-39.118	
729.100	-36.064	
729.200	-31.186	
729.300	-50.577	
729.400	-24.985	
729.500	-37.401	
729.600	-30.139	
729.700	-27.122	
729.800	-35.540	
729.900	-40.936	
730.000	-28.079	
730.100	-32.379	
730.200	-38.800	
730.300	-43.938	
730.400	-40.168	
730.500	-24.514	
730.600	-40.853	
730.700	-44.442	
730.800	-41.893	
730.900	-33.057	
731.000	-45.409	
731.100	-36.185	
731.200	-43.116	
731.300	-32.873	
731.400	-24.604	
731.500	-41.959	
731.600	-24.304	
731.700	-37.665	
731.800	-34.241	
731.900	-41.127	
732.000	-19.040	
732.100	-40.522	
732.200	-33.446	
732.300	-44.770	
732.400	-37.996	
732.500	-36.297	
732.600	-48.057	
732.700	-40.002	
732.800	-20.967	
732.900	-21.924	
733.000	-23.632	
733.100	-42.023	
733.200	-35.412	
733.300	-25.927	
733.400	-32.672	
733.500	-30.713	
733.600	-25.437	
733.700	-44.291	
733.800	-22.445	
733.900	-45.479	
734.000	-38.128	
734.100	-32.885	
734.200	-36.907	
734.300	-34.646	
734.400	-41.532	
734.500	-30.607	
734.600	-35.448	
734.700	-43.639	
734.800	-24.723	
734.900	-45.910	
735.000	-40.933	
735.100	-16.359	
735.200	-16.376	
735.300	-40.658	
735.400	-39.178	
735.500	-26.302	
735.600	-37.774	
735.700	-10.994	
735.800	-32.001	
735.900	-30.140	
736.000	-37.059	
736.100	-30.746	
736.200	-30.895	
736.300	-34.349	
736.400	-30.410	
736.500	-30.970	
736.600	-32.418	
736.700	-39.131	
736.800	-33.159	
736.900	-44.903	
737.000	-41.086	
737.100	-25.547	
737.200	-32.253	
737.300	-25.459	
737.400	-29.945	
737.500	-40.619	
737.600	-23.282	
737.700	-33.281	
737.800	-27.925	
737.900	-37.609	
738.000	-33.170	
738.100	-29.056	
738.200	-26.053	
738.300	-26.581	
738.400	-37.683	
738.500	-50.582	
738.600	-33.677	
738.700	-20.527	
738.800	-32.434	
738.900	-45.863	
739.000	-34.888	
739.100	-36.973	
739.200	-19.052	
739.300	-29.669	
739.400	-30.531	
739.500	-41.908	
739.600	-35.278	
739.700	-39.232	
739.800	-24.400	
739.900	-30.789	
740.000	-27.505	
740.100	-27.226	
740.200	-34.965	
740.300	-25.682	
740.400	-28.642	
740.500	-48.070	
740.600	-29.176	
740.700	-26.720	
740.800	-43.446	
740.900	-32.352	
741.000	-25.593	
741.100	-28.828	
741.200	-25.717	
741.300	-19.039	
741.400	-33.222	
741.500	-13.775	
741.600	-35.047	
741.700	-33.360	
741.800	-24.646	
741.900	-33.200	
742.000	-26.335	
742.100	-24.522	
742.200	-35.149	
742.300	-37.863	
742.400	-34.253	
742.500	-34.805	
742.600	-20.336	
742.700	-27.352	
742.800	-34.936	
742.900	-39.422	
743.000	-35.533	
743.100	-19.328	
743.200	-37.545	
743.300	-37.444	
743.400	-34.682	
743.500	-29.859	
743.600	-19.331	
743.700	-48.902	
743.800	-32.318	
743.900	-19.328	
744.000	-33.231	
744.100	-27.027	
744.200	-20.130	
744.300	-39.545	
744.400	-23.799	
744.500	-31.761	
744.600	-25.362	
744.700	-36.488	
744.800	-18.499	
744.900	-30.222	
745.000	-31.862	
745.100	-34.781	
745.200	-30.690	
745.300	-34.291	
745.400	-30.040	
745.500	-38.756	
745.600	-15.219	
745.700	-24.187	
745.800	-30.403	
745.900	-38.028	
746.000	-19.218	
746.100	-43.721	
746.200	-26.268	
746.300	-19.389	
746.400	-37.396	
746.500	-31.354	
746.600	-48.233	
746.700	-24.997	
746.800	-26.726	
746.900	-46.763	
747.000	-21.125	
747.100	-23.213	
747.200	-31.045	
747.300	-33.315	
747.400	-31.821	
747.500	-13.615	
747.600	-40.964	
747.700	-35.032	
747.800	-19.390	
747.900	-33.459	
748.000	-44.588	
748.100	-27.565	
748.200	-32.275	
748.300	-28.584	
748.400	-32.388	
748.500	-27.075	
748.600	-31.592	
748.700	-33.541	
748.800	-35.741	
748.900	-28.624	
749.000	-23.612	
749.100	-28.204	
749.200	-28.199	
749.300	-39.163	
749.400	-33.685	
749.500	-23.235	
749.600	-21.551	
749.700	-25.988	
749.800	-39.960	
749.900	-27.431	
750.000	-19.973	
750.100	-22.722	
750.200	-23.354	
750.300	-27.780	
750.400	-34.395	
750.500	-22.564	
750.600	-25.167	
750.700	-29.313	
750.800	-39.117	
750.900	-42.299	
751.000	-6.319	
751.100	-22.457	
751.200	-30.350	
751.300	-16.688	
751.400	-19.674	
751.500	-43.961	
751.600	-36.993	
751.700	-31.038	
751.800	-12.726	
751.900	-31.494	
752.000	-17.107	
752.100	-30.289	
752.200	-37.773	
752.300	-31.498	
752.400	-25.711	
752.500	-30.091	
752.600	-24.036	
752.700	-13.924	
752.800	-38.216	
752.900	-12.421	
753.000	-35.514	
753.100	-33.998	
753.200	-25.084	
753.300	-20.698	
753.400	-31.201	
753.500	-19.286	
753.600	-20.911	
753.700	-20.457	
753.800	-21.677	
753.900	-27.190	
754.000	-36.799	
754.100	-34.850	
754.200	-24.412	
754.300	-21.566	
754.400	-26.334	
754.500	-28.251	
754.600	-22.910	
754.700	-29.048	
754.800	-27.536	
754.900	-21.560	
755.000	-23.821	
755.100	-30.870	
755.200	-17.926	
755.300	-46.836	
755.400	-21.694	
755.500	-26.339	
755.600	-50.707	
755.700	-13.683	
755.800	-24.467	
755.900	-26.933	
756.000	-25.048	
756.100	-32.486	
756.200	-24.852	
756.300	-22.025	
756.400	-24.098	
756.500	-21.341	
756.600	-18.501	
756.700	-22.306	
756.800	-26.052	
756.900	-20.046	
757.000	-33.039	
757.100	-25.669	
757.200	-24.008	
757.300	-17.164	
757.400	-37.066	
757.500	-5.698	
757.600	-31.577	
757.700	-17.421	
757.800	-33.266	
757.900	-16.209	
758.000	-39.557	
758.100	-7.026	
758.200	-8.991	
758.300	-19.664	
758.400	-28.248	
758.500	-24.136	
758.600	-17.801	
758.700	-25.444	
758.800	-42.573	
758.900	-28.034	
759.000	-30.493	
759.100	-23.552	
759.200	-27.242	
759.300	-25.754	
759.400	-34.229	
759.500	-12.518	
759.600	-17.935	
759.700	-17.037	
759.800	-40.963	
759.900	-21.661	
760.000	-23.594	
760.100	-31.851	
760.200	-24.390	
760.300	-28.834	
760.400	-25.521	
760.500	-40.116	
760.600	-24.252	
760.700	-18.524	
760.800	-41.633	
760.900	-14.115	
761.000	-26.079	
761.100	-20.543	
761.200	-17.795	
761.300	-35.750	
761.400	-32.458	
761.500	-17.838	
761.600	-23.121	
761.700	-34.628	
761.800	-39.854	
761.900	-39.689	
762.000	-6.498	
762.100	-30.679	
762.200	-25.558	
762.300	-16.808	
762.400	-17.746	
762.500	-23.789	
762.600	-29.827	
762.700	-23.402	
762.800	-27.481	
762.900	-30.829	
763.000	-21.649	
763.100	-16.526	
763.200	-26.990	
763.300	-18.884	
763.400	-13.605	
763.500	-26.972	
763.600	-18.007	
763.700	-31.884	
763.800	-15.534	
763.900	-23.540	
764.000	-25.017	
764.100	-12.669	
764.200	-32.334	
764.300	-16.234	
764.400	-20.550	
764.500	-20.000	
764.600	-37.393	
764.700	-27.587	
764.800	-13.229	
764.900	-22.912	
765.000	-23.172	
765.100	-14.180	
765.200	-34.082	
765.300	-14.625	
765.400	-32.952	
765.500	-7.107	
765.600	-39.638	
765.700	-21.455	
765.800	-21.031	
765.900	-21.623	
766.000	-34.430	
766.100	-10.452	
766.200	-36.341	
766.300	-16.042	
766.400	-36.107	
766.500	-29.517	
766.600	-22.856	
766.700	-25.296	
766.800	-34.615	
766.900	-39.207	
767.000	-12.887	
767.100	-26.520	
767.200	-11.939	
767.300	-20.090	
767.400	-25.724	
767.500	-33.689	
767.600	-32.211	
767.700	-19.178	
767.800	-16.817	
767.900	-19.848	
768.000	-23.781	
768.100	-33.467	
768.200	-21.241	
768.300	-16.440	
768.400	-19.636	
768.500	-17.224	
768.600	-24.366	
768.700	-32.480	
768.800	-17.214	
768.900	-23.897	
769.000	-24.867	
769.100	-16.914	
769.200	-19.990	
769.300	-9.453	
769.400	-23.530	
769.500	-28.418	
769.600	-28.517	
769.700	-12.443	
769.800	-13.701	
769.900	-44.297	
770.000	-17.139	
770.100	-42.249	
770.200	-14.349	
770.300	-29.295	
770.400	-29.875	
770.500	-12.294	
770.600	-7.158	
770.700	-29.667	
770.800	-23.297	
770.900	-49.333	
771.000	-12.493	
771.100	-28.925	
771.200	-11.718	
771.300	-8.776	
771.400	-28.583	
771.500	-30.209	
771.600	-1.461	
771.700	-26.146	
771.800	-26.784	
771.900	-28.585	
772.000	-29.908	
772.100	-27.875	
772.200	-20.613	
772.300	-23.736	
772.400	-22.568	
772.500	-12.480	
772.600	-30.756	
772.700	2.413	
772.800	-38.577	
772.900	-21.486	
773.000	-29.876	
773.100	-26.005	
773.200	-15.946	
773.300	-17.929	
773.400	-25.090	
773.500	-30.825	
773.600	-7.141	
773.700	-15.483	
773.800	-46.734	
773.900	-29.256	
774.000	-14.623	
774.100	-30.712	
774.200	-24.091	
774.300	-19.916	
774.400	-30.602	
774.500	-17.077	
774.600	-14.878	
774.700	-26.435	
774.800	-31.737	
774.900	-21.191	
775.000	-25.348	
775.100	-18.044	
775.200	-25.949	
775.300	-20.544	
775.400	-26.304	
775.500	-16.445	
775.600	-31.673	
775.700	-30.979	
775.800	-33.975	
775.900	-14.528	
776.000	-24.085	
776.100	-17.004	
776.200	-35.898	
776.300	-23.453	
776.400	-25.785	
776.500	-31.238	
776.600	-3.903	
776.700	-26.778	
776.800	-17.067	
776.900	-32.248	
777.000	-17.539	
777.100	-28.930	
777.200	-24.503	
777.300	-8.293	
777.400	-18.510	
777.500	-22.832	
777.600	-19.472	
777.700	-18.529	
777.800	-31.027	
777.900	-19.195	
778.000	-10.847	
778.100	-24.719	
778.200	-28.455	
778.300	-25.233	
778.400	-21.441	
778.500	-14.982	
778.600	-23.827	
778.700	-20.745	
778.800	-36.311	
778.900	-26.223	
779.000	-27.015	
779.100	-35.862	
779.200	-18.325	
779.300	-11.058	
779.400	-11.354	
779.500	-14.684	
779.600	-28.666	
779.700	-22.687	
779.800	-37.649	
779.900	-8.703	
780.000	-13.651	
780.100	5.681	
780.200	26.829	
780.300	53.151	
780.400	53.509	
780.500	59.261	
780.600	71.191	
780.700	65.605	
780.800	82.145	
780.900	54.044	
781.000	76.836	
781.100	85.351	
781.200	78.079	
781.300	66.123	
781.400	57.252	
781.500	61.036	
781.600	74.544	
781.700	67.751	
781.800	86.829	
781.900	65.042	
782.000	67.332	
782.100	50.861	
782.200	74.284	
782.300	69.657	
782.400	66.064	
782.500	67.002	
782.600	63.046	
782.700	50.119	
782.800	66.011	
782.900	57.061	
783.000	41.743	
783.100	47.735	
783.200	41.369	
783.300	41.385	
783.400	48.301	
783.500	68.052	
783.600	56.876	
783.700	66.062	
783.800	63.785	
783.900	49.514	
784.000	51.315	
784.100	49.639	
784.200	58.554	
784.300	55.178	
784.400	40.578	
784.500	60.770	
784.600	57.412	
784.700	74.389	
784.800	58.482	
784.900	65.300	
785.000	69.006	
785.100	75.878	
785.200	66.749	
785.300	70.662	
785.400	75.219	
785.500	84.509	
785.600	69.643	
785.700	88.445	
785.800	86.001	
785.900	72.016	
786.000	76.552	
786.100	84.785	
786.200	81.237	
786.300	83.196	
786.400	85.341	
786.500	96.067	
786.600	91.091	
786.700	89.648	
786.800	95.380	
786.900	86.908	
787.000	94.267	
787.100	87.090	
787.200	81.688	
787.300	89.464	
787.400	87.434	
787.500	90.472	
787.600	85.762	
787.700	95.381	
787.800	105.245	
787.900	94.054	
788.000	77.575	
788.100	99.956	
788.200	96.857	
788.300	91.770	
788.400	97.958	
788.500	94.119	
788.600	93.034	
788.700	89.585	
788.800	96.559	
788.900	98.650	
789.000	86.788	
789.100	101.031	
789.200	89.770	
789.300	101.829	
789.400	90.268	
789.500	100.340	
789.600	84.727	
789.700	99.509	
789.800	95.029	
789.900	96.310	
790.000	95.399	
790.100	96.857	
790.200	91.273	
790.300	104.075	
790.400	100.947	
790.500	91.948	
790.600	80.293	
790.700	111.677	
790.800	93.485	
790.900	95.388	
791.000	89.944	
791.100	94.091	
791.200	87.006	
791.300	93.720	
791.400	96.879	
791.500	92.445	
791.600	89.432	
791.700	87.633	
791.800	105.703	
791.900	107.219	
792.000	97.767	
792.100	88.197	
792.200	74.419	
792.300	117.380	
792.400	94.750	
792.500	96.376	
792.600	93.461	
792.700	82.088	
792.800	90.873	
792.900	91.153	
793.000	94.167	
793.100	95.256	
793.200	97.093	
793.300	80.219	
793.400	105.997	
793.500	98.877	
793.600	72.215	
793.700	99.322	
793.800	94.214	
793.900	95.885	
794.000	80.878	
794.100	83.162	
794.200	88.600	
794.300	102.224	
794.400	88.563	
794.500	97.173	
794.600	96.871	
794.700	92.794	
794.800	92.077	
794.900	95.620	
795.000	103.336	
795.100	92.605	
795.200	100.295	
795.300	90.413	
795.400	99.725	
795.500	81.697	
795.600	95.973	
795.700	76.131	
795.800	87.847	
795.900	86.772	
796.000	85.926	
796.100	99.852	
796.200	83.204	
796.300	86.943	
796.400	82.925	
796.500	97.707	
796.600	98.863	
796.700	67.808	
796.800	72.537	
796.900	102.480	
797.000	76.892	
797.100	94.812	
797.200	83.497	
797.300	100.388	
797.400	81.657	
797.500	90.100	
797.600	85.468	
797.700	79.110	
797.800	84.718	
797.900	71.614	
798.000	91.277	
798.100	90.841	
798.200	84.184	
798.300	80.798	
798.400	75.967	
798.500	91.050	
798.600	93.535	
798.700	74.321	
798.800	84.611	
798.900	89.486	
799.000	82.423	
799.100	82.688	
799.200	80.979	
799.300	78.187	
799.400	75.397	
799.500	87.858	
799.600	67.812	
799.700	73.921	
799.800	75.922	
799.900	76.843	
800.000	85.526	
