time /s	I /nA	
0.100	3.360	
0.200	-13.734	
0.300	-22.436	
0.400	-5.297	
0.500	-18.559	
0.600	-20.982	
0.700	-13.957	
0.800	-31.125	
0.900	-15.445	
1.000	-1.482	
1.100	-18.797	
1.200	-8.999	
1.300	-28.624	
1.400	-27.291	
1.500	-8.624	
1.600	-18.216	
1.700	-19.215	
1.800	-13.473	
1.900	-28.468	
2.000	-20.926	
2.100	-19.450	
2.200	-20.710	
2.300	-14.746	
2.400	-10.123	
2.500	-31.261	
2.600	-13.619	
2.700	-18.331	
2.800	-23.521	
2.900	-16.022	
3.000	-16.375	
3.100	-35.267	
3.200	-15.098	
3.300	-11.534	
3.400	-21.125	
3.500	-12.054	
3.600	-12.230	
3.700	-14.413	
3.800	-18.175	
3.900	-15.706	
4.000	-30.148	
4.100	-17.592	
4.200	-5.011	
4.300	-9.928	
4.400	-11.192	
4.500	-21.372	
4.600	-24.343	
4.700	-14.650	
4.800	-6.555	
4.900	-42.644	
5.000	-10.725	
5.100	-34.804	
5.200	-12.868	
5.300	-11.558	
5.400	-27.276	
5.500	-9.816	
5.600	-27.296	
5.700	-7.242	
5.800	-15.336	
5.900	-5.253	
6.000	-40.029	
6.100	-5.627	
6.200	-7.589	
6.300	-29.251	
6.400	-19.843	
6.500	-16.112	
6.600	-4.744	
6.700	-16.055	
6.800	-18.672	
6.900	-37.904	
7.000	-3.505	
7.100	-32.021	
7.200	-5.234	
7.300	-24.733	
7.400	-17.113	
7.500	-14.432	
7.600	-20.750	
7.700	-17.353	
7.800	-13.939	
7.900	-21.867	
8.000	-13.135	
8.100	-19.927	
8.200	-5.529	
8.300	-18.374	
8.400	-23.817	
8.500	-23.444	
8.600	-18.766	
8.700	-12.053	
8.800	-17.103	
8.900	-22.172	
9.000	-23.130	
9.100	-20.022	
9.200	-1.507	
9.300	-20.791	
9.400	-18.806	
9.500	-33.546	
9.600	-12.082	
9.700	-19.742	
9.800	-12.499	
9.900	-21.258	
10.000	-33.761	
10.100	-15.088	
10.200	-16.740	
10.300	-17.387	
10.400	-13.906	
10.500	-28.013	
10.600	-20.771	
10.700	-34.903	
10.800	-18.121	
10.900	-12.106	
11.000	-23.062	
11.100	-12.329	
11.200	-19.917	
11.300	-9.474	
11.400	-11.942	
11.500	-14.877	
11.600	-22.325	
11.700	-33.671	
11.800	-3.252	
11.900	-15.110	
12.000	-22.505	
12.100	-21.956	
12.200	-18.222	
12.300	-11.319	
12.400	-18.017	
12.500	-22.338	
12.600	-18.742	
12.700	-8.500	
12.800	-32.269	
12.900	-2.612	
13.000	-27.338	
13.100	-21.319	
13.200	-19.936	
13.300	-34.871	
13.400	-17.284	
13.500	-9.169	
13.600	-16.216	
13.700	-1.546	
13.800	-23.751	
13.900	-19.897	
14.000	-30.247	
14.100	-14.204	
14.200	-27.075	
14.300	-31.957	
14.400	-25.257	
14.500	-10.724	
14.600	-7.381	
14.700	-12.735	
14.800	-18.735	
14.900	-16.013	
15.000	-26.219	
15.100	-25.807	
15.200	-9.976	
15.300	-13.511	
15.400	-32.212	
15.500	-16.986	
15.600	-11.739	
15.700	-16.288	
15.800	-7.804	
15.900	-17.327	
16.000	-20.093	
16.100	-6.081	
16.200	-18.973	
16.300	-13.052	
16.400	-11.395	
16.500	-25.367	
16.600	-20.484	
16.700	-15.678	
16.800	-20.143	
16.900	-21.166	
17.000	-1.713	
17.100	-18.497	
17.200	-21.071	
17.300	-14.068	
17.400	-18.596	
17.500	-30.908	
17.600	-5.418	
17.700	-21.702	
17.800	-3.751	
17.900	-28.421	
18.000	-13.188	
18.100	-10.614	
18.200	-13.955	
18.300	-21.137	
18.400	-9.147	
18.500	-3.615	
18.600	-16.681	
18.700	-16.296	
18.800	-24.131	
18.900	-20.101	
19.000	-36.259	
19.100	-12.152	
19.200	-10.126	
19.300	-30.095	
19.400	-1.756	
19.500	-0.050	
19.600	-17.216	
19.700	-20.274	
19.800	-6.870	
19.900	-11.640	
20.000	-15.341	
20.100	-23.687	
20.200	-23.189	
20.300	-3.993	
20.400	-20.446	
20.500	-11.757	
20.600	-5.823	
20.700	-29.034	
20.800	-3.839	
20.900	-19.941	
21.000	-13.924	
21.100	-20.834	
21.200	-26.266	
21.300	-15.546	
21.400	-21.008	
21.500	-5.089	
21.600	-23.335	
21.700	-11.354	
21.800	-29.089	
21.900	-30.062	
22.000	-14.967	
22.100	-15.017	
22.200	-20.712	
22.300	-24.872	
22.400	4.211	
22.500	-25.796	
22.600	-17.253	
22.700	-13.558	
22.800	-27.606	
22.900	-16.477	
23.000	-23.674	
23.100	-28.076	
23.200	-16.091	
23.300	-36.415	
23.400	-27.202	
23.500	-19.375	
23.600	-24.567	
23.700	-26.238	
23.800	-21.745	
23.900	-14.590	
24.000	2.868	
24.100	-15.324	
24.200	-7.250	
24.300	-0.795	
24.400	-20.847	
24.500	-11.848	
24.600	-8.712	
24.700	-14.346	
24.800	-15.109	
24.900	-12.506	
25.000	-15.252	
25.100	-23.001	
25.200	-11.840	
25.300	-17.549	
25.400	-23.367	
25.500	-25.873	
25.600	-21.937	
25.700	-21.258	
25.800	-15.383	
25.900	-12.922	
26.000	-3.586	
26.100	-22.175	
26.200	-23.479	
26.300	-22.047	
26.400	-10.879	
26.500	-2.199	
26.600	-11.845	
26.700	-20.013	
26.800	-14.493	
26.900	-4.621	
27.000	-23.412	
27.100	-10.290	
27.200	-10.481	
27.300	-20.975	
27.400	-14.172	
27.500	-14.560	
27.600	-21.600	
27.700	-18.405	
27.800	-27.236	
27.900	-20.802	
28.000	-8.062	
28.100	-17.144	
28.200	-16.403	
28.300	-20.206	
28.400	-17.415	
28.500	-15.021	
28.600	-31.260	
28.700	-27.411	
28.800	-11.056	
28.900	-5.092	
29.000	3.912	
29.100	-25.134	
29.200	-27.492	
29.300	-8.819	
29.400	-27.275	
29.500	-14.521	
29.600	-2.838	
29.700	-26.075	
29.800	9.752	
29.900	1.700	
30.000	13.592	
30.100	14.708	
30.200	20.898	
30.300	33.278	
30.400	36.452	
30.500	42.433	
30.600	35.706	
30.700	20.658	
30.800	55.478	
30.900	45.499	
31.000	43.342	
31.100	28.778	
31.200	49.740	
31.300	41.771	
31.400	52.191	
31.500	55.462	
31.600	52.918	
31.700	48.079	
31.800	41.593	
31.900	42.389	
32.000	29.848	
32.100	58.798	
32.200	36.889	
32.300	53.438	
32.400	42.277	
32.500	31.897	
32.600	48.639	
32.700	34.402	
32.800	57.227	
32.900	44.677	
33.000	49.514	
33.100	25.904	
33.200	42.826	
33.300	43.762	
33.400	33.367	
33.500	39.967	
33.600	54.684	
33.700	36.399	
33.800	38.473	
33.900	35.843	
34.000	34.439	
34.100	36.273	
34.200	26.701	
34.300	37.579	
34.400	36.351	
34.500	30.114	
34.600	30.350	
34.700	38.421	
34.800	24.399	
34.900	29.820	
35.000	37.708	
35.100	36.288	
35.200	36.722	
35.300	36.839	
35.400	51.300	
35.500	27.257	
35.600	34.150	
35.700	23.698	
35.800	36.818	
35.900	46.163	
36.000	44.637	
36.100	32.399	
36.200	41.027	
36.300	47.260	
36.400	35.333	
36.500	45.033	
36.600	51.448	
36.700	34.165	
36.800	52.230	
36.900	27.086	
37.000	51.012	
37.100	37.432	
37.200	39.063	
37.300	46.979	
37.400	35.902	
37.500	48.828	
37.600	53.001	
37.700	47.385	
37.800	39.216	
37.900	43.276	
38.000	36.578	
38.100	48.817	
38.200	47.615	
38.300	34.181	
38.400	61.288	
38.500	54.568	
38.600	43.950	
38.700	47.481	
38.800	67.649	
38.900	45.426	
39.000	50.882	
39.100	61.532	
39.200	54.107	
39.300	38.895	
39.400	49.344	
39.500	35.917	
39.600	45.136	
39.700	61.204	
39.800	59.699	
39.900	46.917	
40.000	38.710	
40.100	55.731	
40.200	57.452	
40.300	49.935	
40.400	44.026	
40.500	48.904	
40.600	63.663	
40.700	65.381	
40.800	39.633	
40.900	50.979	
41.000	58.014	
41.100	37.599	
41.200	47.934	
41.300	65.765	
41.400	52.025	
41.500	59.268	
41.600	66.942	
41.700	50.080	
41.800	60.515	
41.900	47.772	
42.000	40.907	
42.100	57.827	
42.200	57.761	
42.300	55.888	
42.400	48.683	
42.500	61.556	
42.600	58.481	
42.700	44.532	
42.800	51.576	
42.900	67.586	
43.000	56.654	
43.100	61.597	
43.200	64.134	
43.300	55.023	
43.400	59.614	
43.500	69.028	
43.600	60.194	
43.700	67.930	
43.800	57.988	
43.900	45.377	
44.000	57.091	
44.100	49.619	
44.200	62.541	
44.300	48.033	
44.400	56.306	
44.500	68.598	
44.600	56.532	
44.700	65.815	
44.800	60.657	
44.900	52.431	
45.000	54.782	
45.100	66.779	
45.200	76.286	
45.300	55.854	
45.400	60.538	
45.500	54.717	
45.600	65.610	
45.700	79.372	
45.800	72.981	
45.900	48.365	
46.000	65.866	
46.100	62.884	
46.200	81.734	
46.300	71.012	
46.400	63.512	
46.500	67.093	
46.600	63.992	
46.700	68.913	
46.800	58.180	
46.900	67.964	
47.000	71.028	
47.100	63.169	
47.200	58.662	
47.300	61.269	
47.400	64.069	
47.500	58.117	
47.600	54.735	
47.700	67.527	
47.800	63.548	
47.900	60.033	
48.000	57.274	
48.100	60.513	
48.200	61.704	
48.300	70.326	
48.400	52.654	
48.500	61.340	
48.600	73.896	
48.700	73.607	
48.800	63.857	
48.900	66.255	
49.000	63.202	
49.100	69.214	
49.200	60.788	
49.300	67.121	
49.400	81.211	
49.500	72.675	
49.600	50.956	
49.700	60.882	
49.800	56.047	
49.900	78.204	
50.000	57.335	
50.100	65.590	
50.200	48.180	
50.300	78.194	
50.400	58.003	
50.500	59.134	
50.600	57.412	
50.700	65.043	
50.800	63.932	
50.900	62.947	
51.000	54.335	
51.100	62.145	
51.200	61.878	
51.300	56.965	
51.400	77.525	
51.500	63.257	
51.600	64.960	
51.700	75.628	
51.800	70.673	
51.900	58.237	
52.000	72.706	
52.100	62.388	
52.200	66.580	
52.300	64.094	
52.400	63.715	
52.500	74.228	
52.600	71.184	
52.700	64.064	
52.800	61.427	
52.900	64.444	
53.000	69.452	
53.100	48.889	
53.200	61.797	
53.300	66.477	
53.400	73.609	
53.500	63.723	
53.600	66.449	
53.700	70.390	
53.800	69.449	
53.900	60.095	
54.000	63.446	
54.100	54.618	
54.200	51.607	
54.300	41.145	
54.400	77.542	
54.500	69.057	
54.600	75.777	
54.700	61.193	
54.800	71.217	
54.900	47.303	
55.000	68.419	
55.100	71.370	
55.200	63.225	
55.300	52.247	
55.400	69.462	
55.500	60.010	
55.600	66.455	
55.700	56.856	
55.800	63.344	
55.900	64.567	
56.000	81.267	
56.100	64.814	
56.200	63.802	
56.300	64.405	
56.400	53.924	
56.500	61.299	
56.600	66.578	
56.700	76.048	
56.800	70.806	
56.900	63.976	
57.000	65.190	
57.100	46.467	
57.200	57.966	
57.300	60.685	
57.400	47.609	
57.500	69.822	
57.600	73.430	
57.700	50.049	
57.800	60.271	
57.900	61.428	
58.000	80.254	
58.100	62.237	
58.200	78.334	
58.300	70.435	
58.400	64.818	
58.500	55.931	
58.600	57.185	
58.700	59.480	
58.800	63.812	
58.900	55.806	
59.000	52.946	
59.100	69.178	
59.200	59.191	
59.300	47.638	
59.400	66.711	
59.500	63.870	
59.600	64.151	
59.700	66.971	
59.800	59.397	
59.900	65.310	
60.000	58.527	
60.100	71.118	
60.200	69.262	
60.300	66.730	
60.400	58.833	
60.500	65.119	
60.600	55.419	
60.700	72.396	
60.800	66.862	
60.900	52.122	
61.000	70.306	
61.100	65.962	
61.200	50.330	
61.300	54.592	
61.400	64.051	
61.500	59.729	
61.600	60.291	
61.700	70.661	
61.800	67.926	
61.900	58.310	
62.000	55.692	
62.100	59.319	
62.200	49.410	
62.300	60.411	
62.400	56.667	
62.500	63.326	
62.600	68.763	
62.700	44.836	
62.800	56.183	
62.900	59.941	
63.000	60.643	
63.100	58.681	
63.200	54.291	
63.300	60.156	
63.400	70.787	
63.500	58.541	
63.600	55.946	
63.700	53.375	
63.800	58.284	
63.900	62.640	
64.000	61.354	
64.100	53.689	
64.200	57.160	
64.300	59.915	
64.400	60.724	
64.500	64.650	
64.600	62.942	
64.700	55.413	
64.800	58.268	
64.900	58.029	
65.000	62.141	
65.100	41.404	
65.200	61.536	
65.300	66.991	
65.400	58.111	
65.500	50.854	
65.600	61.788	
65.700	59.240	
65.800	55.892	
65.900	53.325	
66.000	63.620	
66.100	62.005	
66.200	55.534	
66.300	53.962	
66.400	55.441	
66.500	62.058	
66.600	48.272	
66.700	54.790	
66.800	70.697	
66.900	50.706	
67.000	45.728	
67.100	53.699	
67.200	57.846	
67.300	65.375	
67.400	57.048	
67.500	50.235	
67.600	52.402	
67.700	59.551	
67.800	41.844	
67.900	49.405	
68.000	43.199	
68.100	68.895	
68.200	51.231	
68.300	59.995	
68.400	59.972	
68.500	43.332	
68.600	44.115	
68.700	54.641	
68.800	75.573	
68.900	67.619	
69.000	62.929	
69.100	54.970	
69.200	51.690	
69.300	45.928	
69.400	60.041	
69.500	53.888	
69.600	63.421	
69.700	44.481	
69.800	57.891	
69.900	58.167	
70.000	64.392	
70.100	59.949	
70.200	60.964	
70.300	60.462	
70.400	71.362	
70.500	48.606	
70.600	63.566	
70.700	44.693	
70.800	60.214	
70.900	50.411	
71.000	59.495	
71.100	64.687	
71.200	51.816	
71.300	44.322	
71.400	60.451	
71.500	71.639	
71.600	51.281	
71.700	62.296	
71.800	51.902	
71.900	46.472	
72.000	62.962	
72.100	47.496	
72.200	52.830	
72.300	65.544	
72.400	43.093	
72.500	62.395	
72.600	50.183	
72.700	61.200	
72.800	42.218	
72.900	53.287	
73.000	69.168	
73.100	54.284	
73.200	57.290	
73.300	50.144	
73.400	61.239	
73.500	67.093	
73.600	44.424	
73.700	61.818	
73.800	63.312	
73.900	51.591	
74.000	60.369	
74.100	54.229	
74.200	52.441	
74.300	62.810	
74.400	55.272	
74.500	47.180	
74.600	47.457	
74.700	47.130	
74.800	60.182	
74.900	51.776	
75.000	58.395	
75.100	62.108	
75.200	57.015	
75.300	50.588	
75.400	51.304	
75.500	50.453	
75.600	53.640	
75.700	56.214	
75.800	57.972	
75.900	61.272	
76.000	48.987	
76.100	58.491	
76.200	35.903	
76.300	58.208	
76.400	66.270	
76.500	59.631	
76.600	47.922	
76.700	61.208	
76.800	60.488	
76.900	57.196	
77.000	54.205	
77.100	61.324	
77.200	53.170	
77.300	47.280	
77.400	58.452	
77.500	59.187	
77.600	63.915	
77.700	51.493	
77.800	51.483	
77.900	59.004	
78.000	63.131	
78.100	55.209	
78.200	59.515	
78.300	51.125	
78.400	53.150	
78.500	62.254	
78.600	55.280	
78.700	57.314	
78.800	53.009	
78.900	50.053	
79.000	46.596	
79.100	53.231	
79.200	44.067	
79.300	55.032	
79.400	65.058	
79.500	58.114	
79.600	43.921	
79.700	50.885	
79.800	55.135	
79.900	55.784	
80.000	42.998	
80.100	58.397	
80.200	64.019	
80.300	57.114	
80.400	46.759	
80.500	61.089	
80.600	50.370	
80.700	59.006	
80.800	54.140	
80.900	59.551	
81.000	40.140	
81.100	50.818	
81.200	52.849	
81.300	59.009	
81.400	51.392	
81.500	59.371	
81.600	63.014	
81.700	63.434	
81.800	65.905	
81.900	52.534	
82.000	67.611	
82.100	60.528	
82.200	69.923	
82.300	67.197	
82.400	24.678	
82.500	41.040	
82.600	67.266	
82.700	45.469	
82.800	60.034	
82.900	50.052	
83.000	56.234	
83.100	44.224	
83.200	57.887	
83.300	64.473	
83.400	65.865	
83.500	45.810	
83.600	58.419	
83.700	57.141	
83.800	55.906	
83.900	59.273	
84.000	56.400	
84.100	71.298	
84.200	68.670	
84.300	48.519	
84.400	69.669	
84.500	32.933	
84.600	64.261	
84.700	56.368	
84.800	60.816	
84.900	60.253	
85.000	49.926	
85.100	56.416	
85.200	50.901	
85.300	60.867	
85.400	35.079	
85.500	44.679	
85.600	53.054	
85.700	54.293	
85.800	56.038	
85.900	61.872	
86.000	52.731	
86.100	64.440	
86.200	53.679	
86.300	55.943	
86.400	58.051	
86.500	63.818	
86.600	49.881	
86.700	46.627	
86.800	53.015	
86.900	55.261	
87.000	67.789	
87.100	52.789	
87.200	46.920	
87.300	62.512	
87.400	60.958	
87.500	51.445	
87.600	60.853	
87.700	54.176	
87.800	56.849	
87.900	53.556	
88.000	59.877	
88.100	54.868	
88.200	69.987	
88.300	68.320	
88.400	51.084	
88.500	52.955	
88.600	49.718	
88.700	54.478	
88.800	49.296	
88.900	55.350	
89.000	78.364	
89.100	49.267	
89.200	59.697	
89.300	49.222	
89.400	59.660	
89.500	35.566	
89.600	67.432	
89.700	61.175	
89.800	48.878	
89.900	45.705	
90.000	29.743	
90.100	34.234	
90.200	34.989	
90.300	60.509	
90.400	34.702	
90.500	33.778	
90.600	27.111	
90.700	42.330	
90.800	32.634	
90.900	30.175	
91.000	17.369	
91.100	14.099	
91.200	23.613	
91.300	25.299	
91.400	20.862	
91.500	26.990	
91.600	11.836	
91.700	15.493	
91.800	18.892	
91.900	25.293	
92.000	12.505	
92.100	10.490	
92.200	-0.536	
92.300	4.050	
92.400	6.501	
92.500	6.629	
92.600	3.008	
92.700	6.385	
92.800	2.447	
92.900	-9.941	
93.000	1.303	
93.100	-11.532	
93.200	0.366	
93.300	9.562	
93.400	-15.165	
93.500	-2.603	
93.600	-5.326	
93.700	-6.233	
93.800	-16.296	
93.900	-9.821	
94.000	-12.378	
94.100	-17.406	
94.200	-9.382	
94.300	-23.624	
94.400	-22.325	
94.500	-15.594	
94.600	-32.291	
94.700	-31.348	
94.800	-31.026	
94.900	-19.985	
95.000	-20.330	
95.100	-12.252	
95.200	-37.147	
95.300	-43.441	
95.400	-30.969	
95.500	-23.636	
95.600	-33.147	
95.700	-29.904	
95.800	-11.156	
95.900	-27.842	
96.000	-42.276	
96.100	-22.540	
96.200	-43.645	
96.300	-26.271	
96.400	-43.415	
96.500	-28.145	
96.600	-12.114	
96.700	-27.955	
96.800	-21.614	
96.900	-18.497	
97.000	-46.631	
97.100	-19.540	
97.200	-41.760	
97.300	-27.732	
97.400	-32.704	
97.500	-28.825	
97.600	-19.229	
97.700	-27.854	
97.800	-27.585	
97.900	-27.478	
98.000	-34.713	
98.100	-28.842	
98.200	-33.161	
98.300	-15.083	
98.400	-21.914	
98.500	-18.560	
98.600	-25.210	
98.700	-23.111	
98.800	-14.051	
98.900	-29.139	
99.000	-26.876	
99.100	-15.674	
99.200	-21.742	
99.300	-30.947	
99.400	-20.116	
99.500	-36.204	
99.600	-25.685	
99.700	-22.424	
99.800	-8.455	
99.900	-53.140	
100.000	-3.487	
100.100	-26.299	
100.200	-25.007	
100.300	-21.320	
100.400	-17.277	
100.500	-21.399	
100.600	-21.912	
100.700	-31.677	
100.800	-24.801	
100.900	-20.858	
101.000	-20.123	
101.100	-18.099	
101.200	-32.543	
101.300	-26.691	
101.400	-17.566	
101.500	-34.968	
101.600	-14.688	
101.700	-41.273	
101.800	-21.510	
101.900	-16.606	
102.000	-22.388	
102.100	-24.213	
102.200	-11.140	
102.300	-12.606	
102.400	-27.168	
102.500	-34.489	
102.600	-14.978	
102.700	-20.935	
102.800	-31.769	
102.900	-28.435	
103.000	-27.012	
103.100	-41.993	
103.200	-26.552	
103.300	-27.904	
103.400	-7.844	
103.500	-18.654	
103.600	-17.511	
103.700	-38.360	
103.800	-46.866	
103.900	-22.477	
104.000	-10.551	
104.100	-44.018	
104.200	-34.457	
104.300	-9.629	
104.400	-26.863	
104.500	-25.525	
104.600	-30.617	
104.700	-11.367	
104.800	-19.880	
104.900	-28.378	
105.000	-21.513	
105.100	-12.933	
105.200	-22.137	
105.300	-30.932	
105.400	-33.490	
105.500	-28.850	
105.600	-28.158	
105.700	-34.382	
105.800	-12.692	
105.900	-31.021	
106.000	-25.915	
106.100	-25.528	
106.200	-30.936	
106.300	-29.851	
106.400	-35.992	
106.500	-30.633	
106.600	-36.562	
106.700	-15.142	
106.800	-26.395	
106.900	-28.151	
107.000	-25.805	
107.100	-30.815	
107.200	-20.945	
107.300	-28.528	
107.400	-34.278	
107.500	-27.833	
107.600	-36.453	
107.700	-14.394	
107.800	-35.539	
107.900	-34.777	
108.000	-25.054	
108.100	-40.072	
108.200	-40.183	
108.300	0.288	
108.400	-13.875	
108.500	-25.770	
108.600	-31.462	
108.700	-21.583	
108.800	-29.539	
108.900	-32.363	
109.000	-26.029	
109.100	-28.213	
109.200	-29.215	
109.300	-39.460	
109.400	-25.503	
109.500	-33.450	
109.600	-44.664	
109.700	-23.931	
109.800	-47.376	
109.900	-36.302	
110.000	-7.672	
110.100	-19.158	
110.200	-31.068	
110.300	-26.542	
110.400	-42.959	
110.500	-39.486	
110.600	-38.072	
110.700	-20.983	
110.800	-28.291	
110.900	-20.142	
111.000	-36.599	
111.100	-27.243	
111.200	-41.626	
111.300	-24.186	
111.400	-30.991	
111.500	-31.312	
111.600	-33.045	
111.700	-22.377	
111.800	-34.399	
111.900	-31.377	
112.000	-28.329	
112.100	-46.052	
112.200	-24.034	
112.300	-47.538	
112.400	-37.994	
112.500	-32.362	
112.600	-36.575	
112.700	-29.330	
112.800	-39.694	
112.900	-27.288	
113.000	-39.920	
113.100	-32.725	
113.200	-22.046	
113.300	-28.336	
113.400	-25.775	
113.500	-39.661	
113.600	-42.001	
113.700	-39.311	
113.800	-37.109	
113.900	-28.815	
114.000	-43.577	
114.100	-33.341	
114.200	-21.385	
114.300	-19.846	
114.400	-25.368	
114.500	-31.527	
114.600	-47.194	
114.700	-32.135	
114.800	-46.509	
114.900	-19.369	
115.000	-39.616	
115.100	-21.503	
115.200	-31.788	
115.300	-29.512	
115.400	-44.856	
115.500	-32.615	
115.600	-21.712	
115.700	-21.610	
115.800	-41.405	
115.900	-43.597	
116.000	-35.431	
116.100	-43.794	
116.200	-24.760	
116.300	-40.989	
116.400	-33.597	
116.500	-29.861	
116.600	-35.415	
116.700	-34.227	
116.800	-44.884	
116.900	-34.906	
117.000	-29.599	
117.100	-38.519	
117.200	-34.020	
117.300	-27.136	
117.400	-31.617	
117.500	-29.432	
117.600	-34.379	
117.700	-24.085	
117.800	-44.601	
117.900	-38.566	
118.000	-37.941	
118.100	-38.717	
118.200	-43.967	
118.300	-43.943	
118.400	-17.201	
118.500	-42.804	
118.600	-42.037	
118.700	-30.643	
118.800	-59.336	
118.900	-26.163	
119.000	-27.493	
119.100	-40.695	
119.200	-47.513	
119.300	-43.692	
119.400	-59.695	
119.500	-25.873	
119.600	-30.249	
119.700	-45.980	
119.800	-31.028	
119.900	-29.316	
120.000	-46.637	
120.100	-22.621	
120.200	-42.674	
120.300	-45.719	
120.400	-13.218	
120.500	-44.915	
120.600	-47.862	
120.700	-35.584	
120.800	-13.183	
120.900	-43.254	
121.000	-46.037	
121.100	-34.400	
121.200	-39.734	
121.300	-24.892	
121.400	-24.870	
121.500	-33.850	
121.600	-47.363	
121.700	-29.244	
121.800	-30.254	
121.900	-46.500	
122.000	-28.269	
122.100	-18.833	
122.200	-45.681	
122.300	-25.145	
122.400	-31.190	
122.500	-46.771	
122.600	-44.685	
122.700	-31.609	
122.800	-43.176	
122.900	-39.825	
123.000	-40.604	
123.100	-30.869	
123.200	-37.433	
123.300	-25.894	
123.400	-36.623	
123.500	-44.770	
123.600	-30.594	
123.700	-34.210	
123.800	-37.903	
123.900	-31.044	
124.000	-37.757	
124.100	-40.405	
124.200	-40.871	
124.300	-34.308	
124.400	-36.137	
124.500	-34.794	
124.600	-32.333	
124.700	-34.865	
124.800	-34.942	
124.900	-35.658	
125.000	-40.960	
125.100	-21.930	
125.200	-33.624	
125.300	-47.980	
125.400	-28.036	
125.500	-36.040	
125.600	-35.010	
125.700	-31.040	
125.800	-38.855	
125.900	-35.561	
126.000	-42.973	
126.100	-18.722	
126.200	-44.243	
126.300	-47.114	
126.400	-30.388	
126.500	-40.126	
126.600	-28.109	
126.700	-44.327	
126.800	-19.093	
126.900	-31.205	
127.000	-47.609	
127.100	-44.348	
127.200	-37.793	
127.300	-33.634	
127.400	-24.019	
127.500	-25.604	
127.600	-44.492	
127.700	-34.703	
127.800	-29.841	
127.900	-43.152	
128.000	-47.180	
128.100	-38.924	
128.200	-35.758	
128.300	-38.583	
128.400	-28.020	
128.500	-42.782	
128.600	-33.185	
128.700	-38.206	
128.800	-43.001	
128.900	-34.865	
129.000	-38.358	
129.100	-46.142	
129.200	-32.515	
129.300	-35.797	
129.400	-37.834	
129.500	-29.766	
129.600	-21.750	
129.700	-37.205	
129.800	-46.379	
129.900	-31.561	
130.000	-33.415	
130.100	-29.843	
130.200	-37.065	
130.300	-45.416	
130.400	-31.958	
130.500	-32.299	
130.600	-45.383	
130.700	-39.836	
130.800	-34.500	
130.900	-29.640	
131.000	-41.070	
131.100	-36.431	
131.200	-36.013	
131.300	-40.626	
131.400	-24.038	
131.500	-51.824	
131.600	-27.227	
131.700	-34.664	
131.800	-36.312	
131.900	-44.668	
132.000	-12.274	
132.100	-30.674	
132.200	-33.688	
132.300	-27.387	
132.400	-37.506	
132.500	-35.507	
132.600	-31.756	
132.700	-33.120	
132.800	-39.358	
132.900	-34.258	
133.000	-19.829	
133.100	-33.687	
133.200	-42.238	
133.300	-30.052	
133.400	-35.602	
133.500	-47.064	
133.600	-38.962	
133.700	-37.334	
133.800	-39.131	
133.900	-15.511	
134.000	-21.082	
134.100	-42.319	
134.200	-29.727	
134.300	-33.857	
134.400	-46.522	
134.500	-43.155	
134.600	-18.017	
134.700	-27.405	
134.800	-35.780	
134.900	-23.791	
135.000	-32.416	
135.100	-41.930	
135.200	-35.885	
135.300	-37.171	
135.400	-47.398	
135.500	-32.156	
135.600	-34.875	
135.700	-26.267	
135.800	-37.072	
135.900	-42.367	
136.000	-26.230	
136.100	-49.486	
136.200	-30.550	
136.300	-27.097	
136.400	-36.011	
136.500	-34.263	
136.600	-23.434	
136.700	-45.263	
136.800	-26.933	
136.900	-24.994	
137.000	-32.721	
137.100	-25.967	
137.200	-50.582	
137.300	-17.369	
137.400	-33.283	
137.500	-35.900	
137.600	-35.943	
137.700	-22.932	
137.800	-23.090	
137.900	-32.284	
138.000	-38.045	
138.100	-19.188	
138.200	-48.359	
138.300	-21.825	
138.400	-11.868	
138.500	-29.995	
138.600	-31.181	
138.700	-29.138	
138.800	-51.137	
138.900	-34.848	
139.000	-39.058	
139.100	-24.733	
139.200	-16.479	
139.300	-41.823	
139.400	-34.397	
139.500	-35.700	
139.600	-10.002	
139.700	-42.844	
139.800	-34.409	
139.900	-33.650	
140.000	-37.901	
140.100	-17.495	
140.200	-34.344	
140.300	-38.829	
140.400	-43.331	
140.500	-25.551	
140.600	-33.713	
140.700	-46.051	
140.800	-20.269	
140.900	-38.913	
141.000	-22.570	
141.100	-29.981	
141.200	-21.053	
141.300	-43.162	
141.400	-41.150	
141.500	-23.582	
141.600	-32.199	
141.700	-20.940	
141.800	-42.015	
141.900	-41.282	
142.000	-35.823	
142.100	-48.995	
142.200	-19.993	
142.300	-24.736	
142.400	-36.510	
142.500	-32.505	
142.600	-41.118	
142.700	-25.747	
142.800	-24.620	
142.900	-35.284	
143.000	-28.440	
143.100	-34.060	
143.200	-39.291	
143.300	-37.484	
143.400	-35.058	
143.500	-31.912	
143.600	-9.996	
143.700	-29.802	
143.800	-30.374	
143.900	-22.210	
144.000	-18.103	
144.100	-29.936	
144.200	-36.011	
144.300	-32.892	
144.400	-32.562	
144.500	-15.018	
144.600	-41.858	
144.700	-6.913	
144.800	-29.273	
144.900	-41.084	
145.000	-16.440	
145.100	-28.103	
145.200	-28.056	
145.300	-22.900	
145.400	-24.279	
145.500	-34.912	
145.600	-34.265	
145.700	-23.049	
145.800	-23.453	
145.900	-29.961	
146.000	-31.888	
146.100	-20.521	
146.200	-34.154	
146.300	-32.240	
146.400	-21.819	
146.500	-30.911	
146.600	-26.225	
146.700	-38.858	
146.800	-21.234	
146.900	-25.127	
147.000	-42.575	
147.100	-13.005	
147.200	-26.946	
147.300	-25.639	
147.400	-36.086	
147.500	-29.690	
147.600	-21.993	
147.700	-35.944	
147.800	-36.329	
147.900	-36.108	
148.000	-20.987	
148.100	-36.415	
148.200	-13.464	
148.300	-16.783	
148.400	-38.032	
148.500	-38.244	
148.600	-18.803	
148.700	-29.541	
148.800	-13.840	
148.900	-16.928	
149.000	-35.771	
149.100	-29.356	
149.200	-33.659	
149.300	-35.438	
149.400	-31.878	
149.500	-22.479	
149.600	-27.183	
149.700	-21.468	
149.800	-29.518	
149.900	-29.346	
150.000	-33.467	
150.100	-29.444	
150.200	-41.659	
150.300	-15.050	
150.400	-27.939	
150.500	-27.094	
150.600	-11.788	
150.700	-36.788	
150.800	-17.582	
150.900	-11.187	
151.000	-20.404	
151.100	-42.401	
151.200	-36.770	
151.300	-32.612	
151.400	-20.997	
151.500	-40.291	
151.600	-25.667	
151.700	-12.294	
151.800	-29.975	
151.900	-51.697	
152.000	-35.291	
152.100	-16.006	
152.200	-36.807	
152.300	-12.573	
152.400	-43.251	
152.500	-28.242	
152.600	-25.535	
152.700	-29.626	
152.800	-29.326	
152.900	-26.738	
153.000	-4.096	
153.100	-29.269	
153.200	-28.658	
153.300	-22.406	
153.400	-17.376	
153.500	-19.722	
153.600	-27.026	
153.700	-21.791	
153.800	-34.534	
153.900	-25.460	
154.000	-27.439	
154.100	-30.895	
154.200	-27.271	
154.300	-24.519	
154.400	-15.846	
154.500	-30.734	
154.600	-32.212	
154.700	-20.387	
154.800	-34.354	
154.900	-13.860	
155.000	-24.960	
155.100	-32.214	
155.200	-23.491	
155.300	-17.659	
155.400	-16.170	
155.500	-35.291	
155.600	-23.947	
155.700	-28.513	
155.800	-15.588	
155.900	-20.183	
156.000	-28.344	
156.100	-22.708	
156.200	-30.094	
156.300	-27.617	
156.400	-37.002	
156.500	-27.003	
156.600	-17.719	
156.700	-25.303	
156.800	-25.410	
156.900	-27.330	
157.000	-13.114	
157.100	-21.830	
157.200	-21.823	
157.300	-36.182	
157.400	-30.859	
157.500	-23.929	
157.600	-33.996	
157.700	-19.994	
157.800	-19.308	
157.900	-32.222	
158.000	-16.414	
158.100	-13.510	
158.200	-29.101	
158.300	-14.762	
158.400	-26.196	
158.500	-28.423	
158.600	-20.481	
158.700	-28.356	
158.800	-28.718	
158.900	-22.036	
159.000	-23.745	
159.100	-24.314	
159.200	-28.198	
159.300	-37.276	
159.400	-35.044	
159.500	-9.906	
159.600	-16.892	
159.700	-21.243	
159.800	-43.577	
159.900	-28.334	
160.000	-24.879	
160.100	-26.077	
160.200	-31.774	
160.300	-20.625	
160.400	-29.040	
160.500	-22.797	
160.600	-6.119	
160.700	-23.355	
160.800	-26.262	
160.900	-14.620	
161.000	-18.500	
161.100	-11.931	
161.200	-29.146	
161.300	-36.539	
161.400	-9.656	
161.500	-29.356	
161.600	-18.719	
161.700	-31.926	
161.800	-13.770	
161.900	-33.243	
162.000	-17.148	
162.100	-30.712	
162.200	-26.172	
162.300	-12.985	
162.400	-14.277	
162.500	-10.947	
162.600	-43.760	
162.700	-21.502	
162.800	-18.672	
162.900	-31.467	
163.000	-32.669	
163.100	-20.007	
163.200	-14.204	
163.300	-10.232	
163.400	-27.685	
163.500	-29.111	
163.600	-20.688	
163.700	-21.199	
163.800	-40.766	
163.900	-28.643	
164.000	-34.468	
164.100	-16.430	
164.200	-13.878	
164.300	-22.351	
164.400	-26.211	
164.500	-25.156	
164.600	-20.644	
164.700	-26.326	
164.800	-33.437	
164.900	-24.333	
165.000	-22.011	
165.100	-10.599	
165.200	-18.382	
165.300	-25.843	
165.400	-28.341	
165.500	-9.008	
165.600	-19.452	
165.700	-15.573	
165.800	-21.030	
165.900	-22.339	
166.000	-19.878	
166.100	-12.591	
166.200	-22.581	
166.300	-25.609	
166.400	-32.596	
166.500	-29.601	
166.600	-19.862	
166.700	-20.489	
166.800	-27.531	
166.900	-30.550	
167.000	6.056	
167.100	-19.149	
167.200	-26.909	
167.300	-25.310	
167.400	-29.783	
167.500	-24.214	
167.600	-16.901	
167.700	-18.347	
167.800	-15.491	
167.900	-7.952	
168.000	-19.807	
168.100	-17.517	
168.200	-26.384	
168.300	-27.902	
168.400	-25.054	
168.500	-17.267	
168.600	-23.296	
168.700	-13.067	
168.800	-24.568	
168.900	-17.456	
169.000	-13.837	
169.100	-19.733	
169.200	-11.093	
169.300	-30.057	
169.400	-17.204	
169.500	-28.986	
169.600	-40.254	
169.700	-19.994	
169.800	-17.287	
169.900	-14.869	
170.000	-30.186	
170.100	-19.315	
170.200	-30.003	
170.300	-17.575	
170.400	-34.976	
170.500	-0.091	
170.600	-17.923	
170.700	-22.427	
170.800	-37.389	
170.900	-9.818	
171.000	-22.313	
171.100	-22.981	
171.200	-21.711	
171.300	-18.853	
171.400	-20.598	
171.500	-16.988	
171.600	-26.576	
171.700	-13.843	
171.800	-15.789	
171.900	-25.771	
172.000	-15.025	
172.100	-32.986	
172.200	-6.393	
172.300	-17.350	
172.400	-23.331	
172.500	-29.835	
172.600	-26.669	
172.700	4.449	
172.800	-21.951	
172.900	-19.983	
173.000	-31.923	
173.100	-9.079	
173.200	-19.323	
173.300	-16.762	
173.400	-31.059	
173.500	-16.735	
173.600	-10.486	
173.700	-23.544	
173.800	-20.392	
173.900	-21.534	
174.000	-6.663	
174.100	-29.584	
174.200	-34.244	
174.300	-20.052	
174.400	-13.964	
174.500	-30.873	
174.600	-11.884	
174.700	-26.459	
174.800	-19.424	
174.900	-26.716	
175.000	-25.343	
175.100	-29.554	
175.200	-27.070	
175.300	-20.410	
175.400	-28.913	
175.500	-26.725	
175.600	-1.088	
175.700	-16.748	
175.800	-25.655	
175.900	-15.437	
176.000	-19.721	
176.100	-18.626	
176.200	-24.340	
176.300	-18.609	
176.400	-19.507	
176.500	-5.001	
176.600	-26.040	
176.700	-34.043	
176.800	2.761	
176.900	-33.784	
177.000	-23.855	
177.100	-13.925	
177.200	-4.802	
177.300	-20.083	
177.400	-16.352	
177.500	-14.317	
177.600	-19.028	
177.700	-46.348	
177.800	-14.819	
177.900	-9.685	
178.000	-13.992	
178.100	-23.951	
178.200	-21.632	
178.300	-20.818	
178.400	-18.027	
178.500	-13.997	
178.600	-20.129	
178.700	-23.939	
178.800	-15.408	
178.900	-34.101	
179.000	-20.605	
179.100	-12.834	
179.200	-11.608	
179.300	-21.604	
179.400	-24.611	
179.500	-23.084	
179.600	-22.322	
179.700	-18.294	
179.800	-10.849	
179.900	3.097	
180.000	7.553	
180.100	13.730	
180.200	16.830	
180.300	22.022	
180.400	25.307	
180.500	32.288	
180.600	31.505	
180.700	45.836	
180.800	33.245	
180.900	32.340	
181.000	32.932	
181.100	51.143	
181.200	41.999	
181.300	35.799	
181.400	48.620	
181.500	32.400	
181.600	46.486	
181.700	46.662	
181.800	33.115	
181.900	35.862	
182.000	42.387	
182.100	22.611	
182.200	35.208	
182.300	44.959	
182.400	42.942	
182.500	37.132	
182.600	45.848	
182.700	40.583	
182.800	46.262	
182.900	39.366	
183.000	36.343	
183.100	33.908	
183.200	40.701	
183.300	35.004	
183.400	41.928	
183.500	28.312	
183.600	39.733	
183.700	50.281	
183.800	31.206	
183.900	32.847	
184.000	31.026	
184.100	44.887	
184.200	35.040	
184.300	34.324	
184.400	31.857	
184.500	32.870	
184.600	36.909	
184.700	20.979	
184.800	26.924	
184.900	48.805	
185.000	30.755	
185.100	42.451	
185.200	28.471	
185.300	20.422	
185.400	36.319	
185.500	41.734	
185.600	40.488	
185.700	15.598	
185.800	38.897	
185.900	39.084	
186.000	45.441	
186.100	44.297	
186.200	24.578	
186.300	35.858	
186.400	43.481	
186.500	42.643	
186.600	50.831	
186.700	48.267	
186.800	44.835	
186.900	52.139	
187.000	62.535	
187.100	64.983	
187.200	41.113	
187.300	51.781	
187.400	43.959	
187.500	46.780	
187.600	57.459	
187.700	66.510	
187.800	49.677	
187.900	47.951	
188.000	65.619	
188.100	74.187	
188.200	51.674	
188.300	60.981	
188.400	52.232	
188.500	62.476	
188.600	59.141	
188.700	66.610	
188.800	64.764	
188.900	50.156	
189.000	64.818	
189.100	65.825	
189.200	67.049	
189.300	58.351	
189.400	60.720	
189.500	49.580	
189.600	71.277	
189.700	78.114	
189.800	57.201	
189.900	65.198	
190.000	53.902	
190.100	50.434	
190.200	71.398	
190.300	68.272	
190.400	66.942	
190.500	62.396	
190.600	69.648	
190.700	73.940	
190.800	65.896	
190.900	65.326	
191.000	79.731	
191.100	75.816	
191.200	67.256	
191.300	73.024	
191.400	61.758	
191.500	67.074	
191.600	63.258	
191.700	66.736	
191.800	65.024	
191.900	75.467	
192.000	70.113	
192.100	70.916	
192.200	78.064	
192.300	68.476	
192.400	59.424	
192.500	70.664	
192.600	79.050	
192.700	71.609	
192.800	56.143	
192.900	74.746	
193.000	71.064	
193.100	70.265	
193.200	77.647	
193.300	69.106	
193.400	63.157	
193.500	60.326	
193.600	67.209	
193.700	59.569	
193.800	62.596	
193.900	68.723	
194.000	70.292	
194.100	53.558	
194.200	68.508	
194.300	76.482	
194.400	56.735	
194.500	90.159	
194.600	62.927	
194.700	67.071	
194.800	75.329	
194.900	62.401	
195.000	65.771	
195.100	68.306	
195.200	50.729	
195.300	76.665	
195.400	73.669	
195.500	71.307	
195.600	64.972	
195.700	65.376	
195.800	82.730	
195.900	76.835	
196.000	68.330	
196.100	72.606	
196.200	59.661	
196.300	68.000	
196.400	64.966	
196.500	63.289	
196.600	67.110	
196.700	65.862	
196.800	67.195	
196.900	65.300	
197.000	80.155	
197.100	71.545	
197.200	62.341	
197.300	71.973	
197.400	63.756	
197.500	75.115	
197.600	71.071	
197.700	74.871	
197.800	58.286	
197.900	74.254	
198.000	61.116	
198.100	67.540	
198.200	59.524	
198.300	55.218	
198.400	69.592	
198.500	58.198	
198.600	68.588	
198.700	50.411	
198.800	73.093	
198.900	60.824	
199.000	51.983	
199.100	65.077	
199.200	69.438	
199.300	67.257	
199.400	67.320	
199.500	88.514	
199.600	67.081	
199.700	60.406	
199.800	55.286	
199.900	68.724	
200.000	62.098	
200.100	57.233	
200.200	72.927	
200.300	70.438	
200.400	60.958	
200.500	65.191	
200.600	54.013	
200.700	57.332	
200.800	68.555	
200.900	69.141	
201.000	69.333	
201.100	58.292	
201.200	73.100	
201.300	66.888	
201.400	68.608	
201.500	76.106	
201.600	61.242	
201.700	63.308	
201.800	62.216	
201.900	71.409	
202.000	71.569	
202.100	60.757	
202.200	65.685	
202.300	69.163	
202.400	66.046	
202.500	61.517	
202.600	57.420	
202.700	70.603	
202.800	69.666	
202.900	53.455	
203.000	80.110	
203.100	52.913	
203.200	51.996	
203.300	62.822	
203.400	61.700	
203.500	53.236	
203.600	72.513	
203.700	62.657	
203.800	47.176	
203.900	77.329	
204.000	68.189	
204.100	66.811	
204.200	62.064	
204.300	75.213	
204.400	63.348	
204.500	50.826	
204.600	72.419	
204.700	68.071	
204.800	52.098	
204.900	62.648	
205.000	66.508	
205.100	67.730	
205.200	61.926	
205.300	46.835	
205.400	58.476	
205.500	84.108	
205.600	47.776	
205.700	75.389	
205.800	42.677	
205.900	71.787	
206.000	52.212	
206.100	70.587	
206.200	45.943	
206.300	68.208	
206.400	69.539	
206.500	60.897	
206.600	73.310	
206.700	62.993	
206.800	55.010	
206.900	59.139	
207.000	53.393	
207.100	53.419	
207.200	59.029	
207.300	61.570	
207.400	64.301	
207.500	71.123	
207.600	53.091	
207.700	64.041	
207.800	62.670	
207.900	63.193	
208.000	66.089	
208.100	62.916	
208.200	54.231	
208.300	67.814	
208.400	57.944	
208.500	64.478	
208.600	58.954	
208.700	52.976	
208.800	60.260	
208.900	40.905	
209.000	60.596	
209.100	60.080	
209.200	68.491	
209.300	71.445	
209.400	47.321	
209.500	56.369	
209.600	61.989	
209.700	52.017	
209.800	57.916	
209.900	66.626	
210.000	46.395	
210.100	67.536	
210.200	51.894	
210.300	64.609	
210.400	65.178	
210.500	50.588	
210.600	67.731	
210.700	55.321	
210.800	68.465	
210.900	69.431	
211.000	67.530	
211.100	52.038	
211.200	55.968	
211.300	59.079	
211.400	64.324	
211.500	62.468	
211.600	62.958	
211.700	73.151	
211.800	49.692	
211.900	54.289	
212.000	59.499	
212.100	65.432	
212.200	74.612	
212.300	42.738	
212.400	72.267	
212.500	61.781	
212.600	64.724	
212.700	63.084	
212.800	54.379	
212.900	45.247	
213.000	61.539	
213.100	77.957	
213.200	53.415	
213.300	65.065	
213.400	47.091	
213.500	62.972	
213.600	70.064	
213.700	61.023	
213.800	49.881	
213.900	58.843	
214.000	51.632	
214.100	60.628	
214.200	66.863	
214.300	58.383	
214.400	51.730	
214.500	73.839	
214.600	54.987	
214.700	71.539	
214.800	44.694	
214.900	61.708	
215.000	66.085	
215.100	51.744	
215.200	56.904	
215.300	68.271	
215.400	61.325	
215.500	62.029	
215.600	57.448	
215.700	51.303	
215.800	39.940	
215.900	63.566	
216.000	62.597	
216.100	57.332	
216.200	51.584	
216.300	62.102	
216.400	53.574	
216.500	53.124	
216.600	50.650	
216.700	54.693	
216.800	61.608	
216.900	60.296	
217.000	61.169	
217.100	57.178	
217.200	64.728	
217.300	76.474	
217.400	62.279	
217.500	57.464	
217.600	62.360	
217.700	49.769	
217.800	45.205	
217.900	70.662	
218.000	63.550	
218.100	61.957	
218.200	46.971	
218.300	44.168	
218.400	64.450	
218.500	61.936	
218.600	57.109	
218.700	63.515	
218.800	56.662	
218.900	64.375	
219.000	72.745	
219.100	38.232	
219.200	66.323	
219.300	51.588	
219.400	53.226	
219.500	82.611	
219.600	66.293	
219.700	54.175	
219.800	65.158	
219.900	48.064	
220.000	51.585	
220.100	59.148	
220.200	58.205	
220.300	55.723	
220.400	46.209	
220.500	53.080	
220.600	62.588	
220.700	47.431	
220.800	49.503	
220.900	70.506	
221.000	63.980	
221.100	53.454	
221.200	53.556	
221.300	46.981	
221.400	62.263	
221.500	59.532	
221.600	47.941	
221.700	59.256	
221.800	64.064	
221.900	52.270	
222.000	49.443	
222.100	63.843	
222.200	49.353	
222.300	54.340	
222.400	53.825	
222.500	62.715	
222.600	56.971	
222.700	40.025	
222.800	55.446	
222.900	72.085	
223.000	68.184	
223.100	42.713	
223.200	46.669	
223.300	65.366	
223.400	55.770	
223.500	55.693	
223.600	59.093	
223.700	64.328	
223.800	67.829	
223.900	54.268	
224.000	52.991	
224.100	64.653	
224.200	68.705	
224.300	41.764	
224.400	79.843	
224.500	54.310	
224.600	39.026	
224.700	56.604	
224.800	68.398	
224.900	61.547	
225.000	59.958	
225.100	54.203	
225.200	66.980	
225.300	43.570	
225.400	50.086	
225.500	56.567	
225.600	56.182	
225.700	71.846	
225.800	48.454	
225.900	63.017	
226.000	54.496	
226.100	56.803	
226.200	60.225	
226.300	56.466	
226.400	47.941	
226.500	76.192	
226.600	58.291	
226.700	70.182	
226.800	58.290	
226.900	48.827	
227.000	61.350	
227.100	59.343	
227.200	57.615	
227.300	51.596	
227.400	67.369	
227.500	57.726	
227.600	65.415	
227.700	52.530	
227.800	62.376	
227.900	41.135	
228.000	58.398	
228.100	62.724	
228.200	57.334	
228.300	61.250	
228.400	67.413	
228.500	61.218	
228.600	64.539	
228.700	59.975	
228.800	66.047	
228.900	51.718	
229.000	57.444	
229.100	60.285	
229.200	63.664	
229.300	53.395	
229.400	56.217	
229.500	53.658	
229.600	40.070	
229.700	56.641	
229.800	63.954	
229.900	55.451	
230.000	48.835	
230.100	57.549	
230.200	58.602	
230.300	68.786	
230.400	58.292	
230.500	55.962	
230.600	63.805	
230.700	62.157	
230.800	49.714	
230.900	65.771	
231.000	62.635	
231.100	56.857	
231.200	38.765	
231.300	53.230	
231.400	68.774	
231.500	65.973	
231.600	59.221	
231.700	66.691	
231.800	61.276	
231.900	57.362	
232.000	64.722	
232.100	53.364	
232.200	53.509	
232.300	57.182	
232.400	53.329	
232.500	38.066	
232.600	51.544	
232.700	55.652	
232.800	59.082	
232.900	46.596	
233.000	61.367	
233.100	57.417	
233.200	45.195	
233.300	60.042	
233.400	45.870	
233.500	53.826	
233.600	57.874	
233.700	53.841	
233.800	74.962	
233.900	52.677	
234.000	67.984	
234.100	45.830	
234.200	62.204	
234.300	68.226	
234.400	74.502	
234.500	50.736	
234.600	65.149	
234.700	42.361	
234.800	57.571	
234.900	65.914	
235.000	64.411	
235.100	57.417	
235.200	55.232	
235.300	56.525	
235.400	71.912	
235.500	48.798	
235.600	51.467	
235.700	62.758	
235.800	46.128	
235.900	41.115	
236.000	75.940	
236.100	62.968	
236.200	59.831	
236.300	60.628	
236.400	55.480	
236.500	63.036	
236.600	47.860	
236.700	49.561	
236.800	59.713	
236.900	53.481	
237.000	70.423	
237.100	61.698	
237.200	64.738	
237.300	65.315	
237.400	57.401	
237.500	64.829	
237.600	51.068	
237.700	65.840	
237.800	49.511	
237.900	48.774	
238.000	64.930	
238.100	59.210	
238.200	66.373	
238.300	59.234	
238.400	43.130	
238.500	66.428	
238.600	61.599	
238.700	49.498	
238.800	61.376	
238.900	65.055	
239.000	60.113	
239.100	65.176	
239.200	54.105	
239.300	60.976	
239.400	55.710	
239.500	56.786	
239.600	62.731	
239.700	48.872	
239.800	57.063	
239.900	36.649	
240.000	42.512	
240.100	48.414	
240.200	35.080	
240.300	50.751	
240.400	37.455	
240.500	55.364	
240.600	25.508	
240.700	22.422	
240.800	29.823	
240.900	39.222	
241.000	26.346	
241.100	23.632	
241.200	33.836	
241.300	22.390	
241.400	24.191	
241.500	19.445	
241.600	22.342	
241.700	11.201	
241.800	42.598	
241.900	15.536	
242.000	3.531	
242.100	14.648	
242.200	7.123	
242.300	9.559	
242.400	-1.921	
242.500	-2.796	
242.600	-13.927	
242.700	2.964	
242.800	9.903	
242.900	-8.802	
243.000	3.710	
243.100	-11.721	
243.200	-16.575	
243.300	-17.729	
243.400	-7.809	
243.500	-0.819	
243.600	-21.476	
243.700	-8.182	
243.800	-18.894	
243.900	-25.297	
244.000	-23.231	
244.100	-25.231	
244.200	-32.125	
244.300	-28.020	
244.400	-41.065	
244.500	-24.697	
244.600	-19.722	
244.700	-34.566	
244.800	-44.620	
244.900	-32.386	
245.000	-21.892	
245.100	-34.102	
245.200	-28.461	
245.300	-32.454	
245.400	-40.588	
245.500	-28.629	
245.600	-34.255	
245.700	-43.756	
245.800	-29.546	
245.900	-30.787	
246.000	-25.016	
246.100	-32.214	
246.200	-35.731	
246.300	-26.897	
246.400	-31.526	
246.500	-41.526	
246.600	-44.060	
246.700	-30.147	
246.800	-37.773	
246.900	-35.595	
247.000	-34.526	
247.100	-31.814	
247.200	-34.755	
247.300	-21.902	
247.400	-30.677	
247.500	-35.185	
247.600	-38.781	
247.700	-27.958	
247.800	-33.538	
247.900	-33.864	
248.000	-45.984	
248.100	-45.026	
248.200	-20.391	
248.300	-36.881	
248.400	-29.427	
248.500	-15.765	
248.600	-25.498	
248.700	-26.677	
248.800	-27.183	
248.900	-28.447	
249.000	-24.539	
249.100	-39.415	
249.200	-31.587	
249.300	-53.712	
249.400	-37.394	
249.500	-30.376	
249.600	-34.925	
249.700	-50.236	
249.800	-34.735	
249.900	-23.030	
250.000	-25.152	
250.100	-24.064	
250.200	-32.961	
250.300	-31.878	
250.400	-28.486	
250.500	-31.606	
250.600	-35.285	
250.700	-21.792	
250.800	-33.246	
250.900	-37.461	
251.000	-20.807	
251.100	-29.671	
251.200	-49.721	
251.300	-38.992	
251.400	-12.926	
251.500	-44.681	
251.600	-28.886	
251.700	-30.077	
251.800	-40.575	
251.900	-34.367	
252.000	-24.618	
252.100	-35.454	
252.200	-44.562	
252.300	-13.789	
252.400	-35.821	
252.500	-39.940	
252.600	-31.405	
252.700	-19.506	
252.800	-41.375	
252.900	-46.025	
253.000	-21.793	
253.100	-41.323	
253.200	-26.015	
253.300	-39.290	
253.400	-42.763	
253.500	-36.481	
253.600	-18.782	
253.700	-36.421	
253.800	-23.802	
253.900	-43.122	
254.000	-13.224	
254.100	-32.662	
254.200	-38.135	
254.300	-32.716	
254.400	-33.804	
254.500	-47.142	
254.600	-32.044	
254.700	-20.757	
254.800	-33.079	
254.900	-31.068	
255.000	-38.168	
255.100	-46.812	
255.200	-32.050	
255.300	-41.671	
255.400	-25.743	
255.500	-42.387	
255.600	-32.004	
255.700	-37.695	
255.800	-40.513	
255.900	-27.443	
256.000	-38.020	
256.100	-24.481	
256.200	-33.539	
256.300	-36.627	
256.400	-41.358	
256.500	-48.489	
256.600	-26.124	
256.700	-34.633	
256.800	-37.170	
256.900	-47.008	
257.000	-21.903	
257.100	-34.410	
257.200	-35.954	
257.300	-47.858	
257.400	-26.605	
257.500	-29.524	
257.600	-44.878	
257.700	-24.438	
257.800	-34.168	
257.900	-27.579	
258.000	-37.575	
258.100	-37.421	
258.200	-56.048	
258.300	-33.085	
258.400	-31.861	
258.500	-40.020	
258.600	-34.285	
258.700	-34.050	
258.800	-44.322	
258.900	-31.695	
259.000	-31.703	
259.100	-38.277	
259.200	-47.682	
259.300	-32.100	
259.400	-50.824	
259.500	-26.212	
259.600	-39.036	
259.700	-39.624	
259.800	-37.097	
259.900	-46.191	
260.000	-28.408	
260.100	-41.371	
260.200	-30.312	
260.300	-30.671	
260.400	-61.230	
260.500	-41.535	
260.600	-36.670	
260.700	-30.130	
260.800	-24.489	
260.900	-32.959	
261.000	-38.486	
261.100	-42.359	
261.200	-45.299	
261.300	-52.504	
261.400	-30.032	
261.500	-28.044	
261.600	-48.422	
261.700	-43.461	
261.800	-35.374	
261.900	-40.392	
262.000	-57.471	
262.100	-43.755	
262.200	-44.399	
262.300	-39.369	
262.400	-27.748	
262.500	-34.759	
262.600	-30.709	
262.700	-50.273	
262.800	-21.738	
262.900	-47.646	
263.000	-28.988	
263.100	-33.572	
263.200	-34.175	
263.300	-47.451	
263.400	-34.015	
263.500	-35.159	
263.600	-44.721	
263.700	-43.560	
263.800	-35.902	
263.900	-26.465	
264.000	-37.250	
264.100	-27.796	
264.200	-35.016	
264.300	-40.699	
264.400	-27.855	
264.500	-53.602	
264.600	-41.768	
264.700	-37.457	
264.800	-32.479	
264.900	-43.810	
265.000	-37.584	
265.100	-43.473	
265.200	-37.381	
265.300	-34.565	
265.400	-25.938	
265.500	-39.039	
265.600	-28.032	
265.700	-54.669	
265.800	-32.232	
265.900	-39.780	
266.000	-45.630	
266.100	-43.728	
266.200	-60.518	
266.300	-30.464	
266.400	-41.124	
266.500	-36.464	
266.600	-41.999	
266.700	-41.652	
266.800	-27.190	
266.900	-39.112	
267.000	-35.606	
267.100	-36.769	
267.200	-43.060	
267.300	-45.898	
267.400	-41.762	
267.500	-42.569	
267.600	-49.102	
267.700	-22.653	
267.800	-34.127	
267.900	-33.808	
268.000	-36.916	
268.100	-44.574	
268.200	-29.860	
268.300	-55.409	
268.400	-46.730	
268.500	-34.278	
268.600	-36.063	
268.700	-30.622	
268.800	-40.805	
268.900	-47.591	
269.000	-42.117	
269.100	-46.682	
269.200	-39.642	
269.300	-30.954	
269.400	-50.554	
269.500	-39.142	
269.600	-53.006	
269.700	-26.130	
269.800	-30.701	
269.900	-56.671	
270.000	-24.098	
270.100	-44.826	
270.200	-29.493	
270.300	-42.677	
270.400	-36.888	
270.500	-47.070	
270.600	-40.515	
270.700	-39.666	
270.800	-37.990	
270.900	-38.724	
271.000	-43.925	
271.100	-42.649	
271.200	-31.847	
271.300	-40.094	
271.400	-29.046	
271.500	-38.995	
271.600	-42.251	
271.700	-47.564	
271.800	-33.170	
271.900	-54.439	
272.000	-50.361	
272.100	-22.819	
272.200	-49.378	
272.300	-43.786	
272.400	-28.456	
272.500	-37.302	
272.600	-45.280	
272.700	-37.126	
272.800	-33.570	
272.900	-55.387	
273.000	-45.691	
273.100	-24.662	
273.200	-45.866	
273.300	-38.566	
273.400	-44.720	
273.500	-47.053	
273.600	-35.211	
273.700	-26.692	
273.800	-43.010	
273.900	-28.709	
274.000	-43.692	
274.100	-44.615	
274.200	-16.899	
274.300	-44.666	
274.400	-36.945	
274.500	-31.890	
274.600	-32.332	
274.700	-37.855	
274.800	-46.808	
274.900	-33.989	
275.000	-28.361	
275.100	-35.633	
275.200	-43.794	
275.300	-45.795	
275.400	-32.184	
275.500	-37.460	
275.600	-38.224	
275.700	-31.775	
275.800	-36.616	
275.900	-31.922	
276.000	-47.634	
276.100	-26.963	
276.200	-39.849	
276.300	-33.085	
276.400	-39.648	
276.500	-22.330	
276.600	-36.104	
276.700	-43.121	
276.800	-24.450	
276.900	-35.260	
277.000	-50.786	
277.100	-39.065	
277.200	-42.350	
277.300	-43.111	
277.400	-28.017	
277.500	-32.323	
277.600	-37.958	
277.700	-42.155	
277.800	-63.391	
277.900	-30.893	
278.000	-30.116	
278.100	-47.946	
278.200	-29.910	
278.300	-31.457	
278.400	-48.275	
278.500	-26.187	
278.600	-33.762	
278.700	-37.021	
278.800	-35.954	
278.900	-40.061	
279.000	-40.217	
279.100	-33.999	
279.200	-31.188	
279.300	-34.227	
279.400	-25.943	
279.500	-42.390	
279.600	-34.664	
279.700	-43.528	
279.800	-35.429	
279.900	-34.084	
280.000	-42.883	
280.100	-40.569	
280.200	-45.715	
280.300	-34.161	
280.400	-25.308	
280.500	-23.623	
280.600	-27.690	
280.700	-41.116	
280.800	-41.602	
280.900	-33.119	
281.000	-44.126	
281.100	-57.809	
281.200	-24.038	
281.300	-49.833	
281.400	-59.031	
281.500	-25.031	
281.600	-28.917	
281.700	-29.630	
281.800	-27.037	
281.900	-27.197	
282.000	-29.732	
282.100	-42.033	
282.200	-39.842	
282.300	-56.656	
282.400	-35.874	
282.500	-25.289	
282.600	-48.206	
282.700	-16.686	
282.800	-38.503	
282.900	-43.274	
283.000	-45.035	
283.100	-28.467	
283.200	-39.412	
283.300	-30.354	
283.400	-27.543	
283.500	-26.833	
283.600	-33.359	
283.700	-38.578	
283.800	-38.755	
283.900	-20.456	
284.000	-23.648	
284.100	-37.583	
284.200	-44.111	
284.300	-41.200	
284.400	-26.012	
284.500	-32.464	
284.600	-42.160	
284.700	-24.940	
284.800	-44.412	
284.900	-25.313	
285.000	-41.504	
285.100	-46.904	
285.200	-33.810	
285.300	-32.852	
285.400	-48.270	
285.500	-18.894	
285.600	-34.242	
285.700	-28.482	
285.800	-27.575	
285.900	-37.230	
286.000	-36.855	
286.100	-37.084	
286.200	-19.644	
286.300	-31.421	
286.400	-28.022	
286.500	-39.727	
286.600	-29.316	
286.700	-34.867	
286.800	-29.938	
286.900	-25.082	
287.000	-41.543	
287.100	-26.505	
287.200	-17.713	
287.300	-33.036	
287.400	-43.105	
287.500	-20.606	
287.600	-29.514	
287.700	-39.671	
287.800	-33.607	
287.900	-36.649	
288.000	-38.062	
288.100	-26.273	
288.200	-31.712	
288.300	-31.565	
288.400	-38.424	
288.500	-37.561	
288.600	-40.615	
288.700	-36.525	
288.800	-42.767	
288.900	-28.353	
289.000	-43.934	
289.100	-34.017	
289.200	-25.828	
289.300	-32.002	
289.400	-28.308	
289.500	-16.008	
289.600	-26.431	
289.700	-31.714	
289.800	-29.185	
289.900	-39.058	
290.000	-40.022	
290.100	-21.209	
290.200	-32.022	
290.300	-26.249	
290.400	-43.772	
290.500	-38.713	
290.600	-24.943	
290.700	-38.268	
290.800	-27.182	
290.900	-28.653	
291.000	-35.999	
291.100	-27.723	
291.200	-46.306	
291.300	-31.177	
291.400	-33.170	
291.500	-21.884	
291.600	-25.465	
291.700	-22.307	
291.800	-26.314	
291.900	-27.041	
292.000	-41.609	
292.100	-41.885	
292.200	-40.844	
292.300	-42.855	
292.400	-27.895	
292.500	-22.318	
292.600	-25.361	
292.700	-30.972	
292.800	-31.468	
292.900	-31.168	
293.000	-32.915	
293.100	-28.896	
293.200	-31.965	
293.300	-39.958	
293.400	-48.226	
293.500	-23.828	
293.600	-33.900	
293.700	-16.066	
293.800	-22.787	
293.900	-41.145	
294.000	-32.909	
294.100	-20.076	
294.200	-26.086	
294.300	-25.597	
294.400	-41.459	
294.500	-35.007	
294.600	-33.506	
294.700	-30.327	
294.800	-43.069	
294.900	-22.263	
295.000	-13.969	
295.100	-33.756	
295.200	-24.732	
295.300	-27.311	
295.400	-31.330	
295.500	-29.531	
295.600	-27.397	
295.700	-41.743	
295.800	-14.266	
295.900	-34.035	
296.000	-36.219	
296.100	-22.749	
296.200	-34.825	
296.300	-27.894	
296.400	-29.538	
296.500	-27.137	
296.600	-36.032	
296.700	-45.229	
296.800	-31.262	
296.900	-23.451	
297.000	-33.537	
297.100	-37.889	
297.200	-15.038	
297.300	-28.960	
297.400	-33.324	
297.500	-29.266	
297.600	-20.930	
297.700	-28.142	
297.800	-35.079	
297.900	-19.724	
298.000	-40.179	
298.100	-22.759	
298.200	-44.324	
298.300	-26.809	
298.400	-25.214	
298.500	-32.279	
298.600	-17.513	
298.700	-18.062	
298.800	-33.277	
298.900	-35.062	
299.000	-26.515	
299.100	-24.348	
299.200	-21.451	
299.300	-47.623	
299.400	-30.680	
299.500	-40.488	
299.600	-16.345	
299.700	-25.425	
299.800	-30.437	
299.900	-21.406	
300.000	-25.318	
300.100	-30.352	
300.200	-15.849	
300.300	-29.444	
300.400	-15.415	
300.500	-25.270	
300.600	-37.729	
300.700	-40.549	
300.800	-26.526	
300.900	-26.448	
301.000	-20.820	
301.100	-17.393	
301.200	-20.407	
301.300	-31.930	
301.400	-30.084	
301.500	-12.098	
301.600	-36.521	
301.700	-22.134	
301.800	-29.891	
301.900	-32.802	
302.000	-17.405	
302.100	-27.286	
302.200	-27.256	
302.300	-31.198	
302.400	-29.717	
302.500	-28.939	
302.600	-19.171	
302.700	-24.562	
302.800	-20.470	
302.900	-37.066	
303.000	-28.386	
303.100	-15.679	
303.200	-21.295	
303.300	-31.640	
303.400	-23.151	
303.500	-25.614	
303.600	-22.099	
303.700	-30.549	
303.800	-26.205	
303.900	-29.313	
304.000	-16.733	
304.100	-39.526	
304.200	-38.587	
304.300	-20.530	
304.400	-31.312	
304.500	-8.665	
304.600	-16.347	
304.700	-25.598	
304.800	-26.718	
304.900	-23.139	
305.000	-35.586	
305.100	-23.739	
305.200	-39.542	
305.300	-18.207	
305.400	-37.519	
305.500	-21.960	
305.600	-22.309	
305.700	-16.500	
305.800	-15.011	
305.900	-31.589	
306.000	-34.996	
306.100	-35.446	
306.200	-19.740	
306.300	-21.692	
306.400	-22.451	
306.500	-31.021	
306.600	-8.707	
306.700	-20.071	
306.800	-21.779	
306.900	-46.903	
307.000	-38.118	
307.100	-28.597	
307.200	-8.377	
307.300	-21.819	
307.400	-30.594	
307.500	-26.687	
307.600	-3.647	
307.700	-32.237	
307.800	-30.612	
307.900	-32.038	
308.000	-19.624	
308.100	-16.166	
308.200	-28.790	
308.300	-26.521	
308.400	-21.520	
308.500	-26.087	
308.600	-11.953	
308.700	-45.290	
308.800	-28.539	
308.900	-10.750	
309.000	-14.002	
309.100	-23.448	
309.200	-36.617	
309.300	-19.106	
309.400	-28.682	
309.500	-19.375	
309.600	-21.646	
309.700	-27.251	
309.800	-15.391	
309.900	-35.531	
310.000	-12.553	
310.100	-28.116	
310.200	-21.900	
310.300	-19.896	
310.400	-31.706	
310.500	-26.547	
310.600	-23.107	
310.700	-32.912	
310.800	-28.948	
310.900	-32.773	
311.000	-15.282	
311.100	-28.830	
311.200	-23.095	
311.300	-27.860	
311.400	-22.832	
311.500	-19.718	
311.600	-22.529	
311.700	-19.730	
311.800	-21.472	
311.900	-37.412	
312.000	-19.118	
312.100	-23.654	
312.200	-30.103	
312.300	-15.360	
312.400	-33.510	
312.500	-40.892	
312.600	-15.402	
312.700	-12.713	
312.800	-24.453	
312.900	-35.433	
313.000	-20.022	
313.100	-18.938	
313.200	-10.537	
313.300	-18.553	
313.400	-32.761	
313.500	-17.500	
313.600	-25.519	
313.700	-25.388	
313.800	-12.234	
313.900	-36.710	
314.000	-27.866	
314.100	-20.640	
314.200	-21.374	
314.300	-34.316	
314.400	-19.609	
314.500	-43.443	
314.600	-12.123	
314.700	-31.684	
314.800	-24.961	
314.900	-20.073	
315.000	-17.068	
315.100	-14.427	
315.200	-37.135	
315.300	-14.171	
315.400	-29.931	
315.500	-25.103	
315.600	-21.693	
315.700	-27.944	
315.800	-27.023	
315.900	-8.754	
316.000	-18.351	
316.100	-14.706	
316.200	-25.657	
316.300	-32.843	
316.400	-19.191	
316.500	-23.645	
316.600	-19.206	
316.700	-25.095	
316.800	-21.596	
316.900	-24.164	
317.000	-20.542	
317.100	-18.207	
317.200	-31.725	
317.300	-30.500	
317.400	-21.955	
317.500	-13.745	
317.600	-26.644	
317.700	-11.738	
317.800	-29.921	
317.900	-29.581	
318.000	-20.795	
318.100	-23.509	
318.200	-23.337	
318.300	-8.078	
318.400	-30.434	
318.500	-30.979	
318.600	-9.501	
318.700	-28.412	
318.800	-16.086	
318.900	-18.552	
319.000	-44.320	
319.100	-20.635	
319.200	-13.267	
319.300	-14.445	
319.400	-24.680	
319.500	-20.130	
319.600	-29.617	
319.700	-18.595	
319.800	-24.466	
319.900	-16.596	
320.000	-25.331	
320.100	-37.841	
320.200	-19.589	
320.300	-12.232	
320.400	-5.098	
320.500	-22.138	
320.600	-10.331	
320.700	-21.184	
320.800	-11.602	
320.900	-11.464	
321.000	-30.845	
321.100	-19.910	
321.200	-16.620	
321.300	-39.453	
321.400	-19.220	
321.500	-32.107	
321.600	-27.205	
321.700	-9.855	
321.800	-10.947	
321.900	-9.069	
322.000	-16.451	
322.100	-14.186	
322.200	-32.575	
322.300	-28.512	
322.400	-13.867	
322.500	-16.058	
322.600	-25.260	
322.700	-19.067	
322.800	-5.864	
322.900	-23.844	
323.000	-8.889	
323.100	-34.386	
323.200	-37.253	
323.300	-20.538	
323.400	-19.586	
323.500	-24.493	
323.600	-29.776	
323.700	-7.962	
323.800	-24.507	
323.900	-20.670	
324.000	-26.196	
324.100	-12.382	
324.200	-21.135	
324.300	-26.012	
324.400	-15.059	
324.500	-17.719	
324.600	-25.533	
324.700	-16.412	
324.800	-15.102	
324.900	-32.280	
325.000	-26.064	
325.100	-1.302	
325.200	-14.218	
325.300	-16.807	
325.400	-19.417	
325.500	-19.805	
325.600	-18.513	
325.700	-17.575	
325.800	-15.765	
325.900	-22.354	
326.000	-17.431	
326.100	-11.375	
326.200	-23.846	
326.300	-13.920	
326.400	-6.546	
326.500	-28.100	
326.600	-13.480	
326.700	-29.788	
326.800	-42.705	
326.900	-18.390	
327.000	-24.573	
327.100	-27.260	
327.200	-13.460	
327.300	-25.719	
327.400	-18.758	
327.500	-29.347	
327.600	-33.225	
327.700	-11.080	
327.800	-17.585	
327.900	-11.600	
328.000	-21.965	
328.100	-31.548	
328.200	-29.357	
328.300	-17.210	
328.400	-6.852	
328.500	-19.438	
328.600	-16.740	
328.700	-26.376	
328.800	-24.903	
328.900	-17.981	
329.000	-20.548	
329.100	-15.478	
329.200	-20.430	
329.300	-13.721	
329.400	-5.139	
329.500	-35.426	
329.600	-17.359	
329.700	-20.939	
329.800	-5.808	
329.900	0.734	
330.000	0.228	
330.100	7.308	
330.200	11.264	
330.300	29.709	
330.400	13.138	
330.500	26.493	
330.600	30.051	
330.700	31.498	
330.800	41.575	
330.900	31.031	
331.000	56.056	
331.100	44.197	
331.200	21.911	
331.300	43.693	
331.400	23.834	
331.500	39.457	
331.600	36.324	
331.700	28.599	
331.800	30.074	
331.900	35.561	
332.000	39.756	
332.100	36.754	
332.200	43.689	
332.300	47.096	
332.400	26.253	
332.500	42.179	
332.600	41.879	
332.700	48.101	
332.800	32.020	
332.900	37.365	
333.000	50.194	
333.100	42.647	
333.200	38.340	
333.300	48.326	
333.400	36.199	
333.500	35.383	
333.600	26.879	
333.700	28.864	
333.800	37.350	
333.900	49.205	
334.000	27.664	
334.100	39.276	
334.200	24.369	
334.300	53.509	
334.400	36.601	
334.500	23.959	
334.600	25.970	
334.700	38.629	
334.800	21.968	
334.900	36.883	
335.000	24.514	
335.100	36.449	
335.200	34.669	
335.300	40.156	
335.400	43.472	
335.500	31.582	
335.600	42.597	
335.700	44.944	
335.800	24.368	
335.900	18.540	
336.000	58.721	
336.100	47.709	
336.200	31.109	
336.300	36.084	
336.400	36.445	
336.500	43.057	
336.600	47.127	
336.700	49.936	
336.800	38.695	
336.900	44.516	
337.000	31.958	
337.100	59.428	
337.200	43.029	
337.300	51.365	
337.400	51.088	
337.500	50.333	
337.600	58.045	
337.700	50.316	
337.800	41.254	
337.900	49.345	
338.000	70.435	
338.100	49.036	
338.200	63.265	
338.300	58.110	
338.400	54.409	
338.500	44.624	
338.600	67.573	
338.700	53.687	
338.800	65.980	
338.900	53.565	
339.000	67.263	
339.100	61.507	
339.200	64.652	
339.300	53.700	
339.400	68.196	
339.500	67.311	
339.600	47.399	
339.700	63.457	
339.800	58.505	
339.900	66.624	
340.000	61.432	
340.100	72.650	
340.200	77.540	
340.300	64.538	
340.400	64.696	
340.500	68.621	
340.600	60.914	
340.700	60.768	
340.800	60.402	
340.900	66.788	
341.000	65.820	
341.100	61.144	
341.200	70.183	
341.300	67.900	
341.400	59.709	
341.500	69.813	
341.600	61.861	
341.700	57.927	
341.800	63.527	
341.900	57.932	
342.000	83.231	
342.100	76.151	
342.200	70.332	
342.300	62.872	
342.400	48.407	
342.500	80.540	
342.600	69.283	
342.700	65.312	
342.800	74.961	
342.900	61.817	
343.000	58.835	
343.100	66.809	
343.200	64.943	
343.300	66.481	
343.400	74.910	
343.500	78.332	
343.600	81.341	
343.700	64.325	
343.800	70.771	
343.900	71.629	
344.000	67.949	
344.100	65.411	
344.200	75.182	
344.300	58.439	
344.400	70.841	
344.500	72.457	
344.600	68.025	
344.700	69.039	
344.800	67.750	
344.900	65.533	
345.000	69.473	
345.100	64.572	
345.200	63.543	
345.300	67.763	
345.400	71.882	
345.500	51.564	
345.600	69.285	
345.700	89.446	
345.800	65.640	
345.900	60.159	
346.000	61.860	
346.100	75.429	
346.200	57.693	
346.300	69.547	
346.400	79.265	
346.500	72.253	
346.600	61.491	
346.700	68.115	
346.800	76.708	
346.900	60.173	
347.000	71.379	
347.100	67.964	
347.200	60.106	
347.300	63.306	
347.400	53.161	
347.500	60.730	
347.600	72.807	
347.700	75.512	
347.800	72.065	
347.900	57.661	
348.000	71.443	
348.100	75.074	
348.200	69.137	
348.300	54.618	
348.400	49.773	
348.500	73.589	
348.600	60.538	
348.700	72.671	
348.800	70.342	
348.900	59.603	
349.000	65.472	
349.100	68.886	
349.200	85.248	
349.300	66.063	
349.400	56.792	
349.500	50.214	
349.600	68.375	
349.700	64.672	
349.800	71.789	
349.900	69.830	
350.000	63.235	
350.100	61.203	
350.200	74.526	
350.300	49.551	
350.400	85.518	
350.500	63.579	
350.600	62.119	
350.700	58.626	
350.800	65.064	
350.900	68.608	
351.000	56.814	
351.100	76.457	
351.200	67.051	
351.300	67.505	
351.400	58.844	
351.500	65.349	
351.600	71.211	
351.700	54.441	
351.800	60.838	
351.900	61.001	
352.000	67.757	
352.100	64.958	
352.200	47.917	
352.300	66.693	
352.400	68.469	
352.500	55.262	
352.600	58.786	
352.700	64.228	
352.800	76.018	
352.900	64.490	
353.000	59.462	
353.100	65.517	
353.200	60.651	
353.300	68.377	
353.400	75.790	
353.500	69.119	
353.600	68.951	
353.700	62.892	
353.800	57.389	
353.900	63.460	
354.000	63.895	
354.100	65.233	
354.200	50.564	
354.300	63.201	
354.400	75.200	
354.500	70.856	
354.600	74.903	
354.700	60.672	
354.800	55.721	
354.900	69.771	
355.000	61.043	
355.100	63.102	
355.200	55.172	
355.300	69.710	
355.400	72.969	
355.500	62.272	
355.600	41.211	
355.700	48.205	
355.800	84.268	
355.900	61.574	
356.000	68.924	
356.100	65.808	
356.200	57.563	
356.300	57.050	
356.400	55.182	
356.500	74.808	
356.600	57.559	
356.700	60.299	
356.800	66.606	
356.900	49.764	
357.000	53.141	
357.100	57.520	
357.200	72.010	
357.300	53.220	
357.400	62.203	
357.500	51.982	
357.600	62.458	
357.700	63.204	
357.800	57.695	
357.900	70.727	
358.000	60.805	
358.100	55.039	
358.200	58.736	
358.300	69.157	
358.400	57.190	
358.500	60.394	
358.600	52.266	
358.700	72.214	
358.800	46.401	
358.900	66.822	
359.000	46.393	
359.100	61.753	
359.200	69.092	
359.300	58.328	
359.400	57.396	
359.500	75.573	
359.600	54.658	
359.700	46.365	
359.800	59.839	
359.900	60.673	
360.000	62.301	
360.100	64.910	
360.200	61.017	
360.300	65.286	
360.400	69.348	
360.500	55.739	
360.600	61.542	
360.700	61.942	
360.800	50.442	
360.900	58.449	
361.000	51.515	
361.100	62.891	
361.200	52.199	
361.300	64.041	
361.400	58.692	
361.500	63.911	
361.600	50.643	
361.700	58.119	
361.800	75.269	
361.900	63.397	
362.000	55.675	
362.100	67.381	
362.200	71.489	
362.300	66.074	
362.400	53.583	
362.500	52.105	
362.600	74.447	
362.700	54.208	
362.800	59.418	
362.900	52.915	
363.000	83.881	
363.100	54.395	
363.200	56.455	
363.300	66.385	
363.400	54.282	
363.500	53.948	
363.600	59.461	
363.700	66.355	
363.800	63.959	
363.900	53.498	
364.000	57.728	
364.100	56.335	
364.200	52.979	
364.300	56.816	
364.400	52.476	
364.500	52.455	
364.600	67.734	
364.700	45.728	
364.800	51.748	
364.900	57.463	
365.000	60.841	
365.100	66.972	
365.200	56.338	
365.300	62.872	
365.400	52.073	
365.500	56.408	
365.600	52.765	
365.700	72.119	
365.800	78.166	
365.900	56.449	
366.000	66.786	
366.100	57.222	
366.200	58.349	
366.300	41.846	
366.400	74.877	
366.500	52.788	
366.600	68.644	
366.700	72.671	
366.800	55.652	
366.900	56.233	
367.000	57.521	
367.100	66.130	
367.200	61.845	
367.300	46.754	
367.400	48.736	
367.500	62.273	
367.600	68.890	
367.700	57.114	
367.800	72.427	
367.900	58.629	
368.000	56.601	
368.100	58.942	
368.200	48.175	
368.300	67.955	
368.400	60.656	
368.500	60.419	
368.600	70.981	
368.700	54.558	
368.800	54.379	
368.900	57.531	
369.000	70.262	
369.100	73.450	
369.200	60.577	
369.300	60.686	
369.400	59.169	
369.500	44.649	
369.600	58.033	
369.700	63.383	
369.800	47.628	
369.900	61.711	
370.000	57.235	
370.100	69.460	
370.200	44.156	
370.300	64.200	
370.400	65.494	
370.500	69.805	
370.600	62.084	
370.700	53.578	
370.800	45.061	
370.900	62.664	
371.000	61.362	
371.100	46.686	
371.200	61.704	
371.300	74.130	
371.400	49.496	
371.500	58.040	
371.600	65.815	
371.700	53.691	
371.800	57.176	
371.900	47.478	
372.000	59.580	
372.100	52.209	
372.200	51.269	
372.300	46.551	
372.400	75.738	
372.500	51.427	
372.600	58.086	
372.700	58.060	
372.800	51.155	
372.900	57.674	
373.000	77.751	
373.100	48.923	
373.200	57.729	
373.300	50.803	
373.400	59.577	
373.500	67.644	
373.600	49.352	
373.700	57.234	
373.800	46.919	
373.900	66.767	
374.000	48.926	
374.100	66.435	
374.200	51.611	
374.300	48.379	
374.400	64.166	
374.500	66.678	
374.600	44.743	
374.700	67.420	
374.800	44.808	
374.900	53.585	
375.000	57.273	
375.100	49.330	
375.200	71.275	
375.300	51.688	
375.400	63.716	
375.500	76.611	
375.600	57.177	
375.700	48.745	
375.800	35.478	
375.900	52.761	
376.000	60.923	
376.100	43.471	
376.200	69.138	
376.300	47.788	
376.400	55.524	
376.500	56.584	
376.600	57.067	
376.700	55.750	
376.800	66.247	
376.900	63.760	
377.000	75.166	
377.100	62.872	
377.200	44.977	
377.300	50.067	
377.400	70.302	
377.500	66.866	
377.600	66.119	
377.700	55.154	
377.800	59.579	
377.900	62.190	
378.000	44.001	
378.100	64.568	
378.200	53.595	
378.300	67.681	
378.400	54.150	
378.500	57.960	
378.600	60.060	
378.700	69.061	
378.800	60.450	
378.900	48.751	
379.000	61.870	
379.100	54.807	
379.200	59.102	
379.300	54.315	
379.400	59.563	
379.500	51.263	
379.600	71.298	
379.700	52.301	
379.800	51.764	
379.900	60.609	
380.000	60.733	
380.100	61.894	
380.200	66.930	
380.300	67.378	
380.400	62.532	
380.500	55.124	
380.600	56.836	
380.700	58.015	
380.800	52.118	
380.900	46.580	
381.000	59.171	
381.100	56.526	
381.200	69.064	
381.300	53.146	
381.400	55.801	
381.500	57.623	
381.600	57.100	
381.700	57.428	
381.800	57.833	
381.900	58.601	
382.000	61.503	
382.100	60.241	
382.200	57.834	
382.300	49.213	
382.400	57.485	
382.500	41.966	
382.600	67.073	
382.700	62.821	
382.800	66.003	
382.900	48.202	
383.000	68.414	
383.100	66.783	
383.200	61.039	
383.300	56.186	
383.400	46.998	
383.500	63.741	
383.600	55.702	
383.700	57.168	
383.800	59.138	
383.900	50.232	
384.000	63.788	
384.100	55.367	
384.200	65.832	
384.300	58.961	
384.400	59.304	
384.500	53.621	
384.600	70.839	
384.700	50.227	
384.800	55.406	
384.900	42.975	
385.000	58.859	
385.100	62.885	
385.200	59.566	
385.300	47.167	
385.400	71.336	
385.500	43.783	
385.600	54.989	
385.700	52.398	
385.800	52.333	
385.900	56.847	
386.000	58.100	
386.100	59.155	
386.200	44.279	
386.300	43.207	
386.400	72.259	
386.500	50.383	
386.600	57.350	
386.700	72.694	
386.800	59.971	
386.900	64.273	
387.000	51.857	
387.100	42.615	
387.200	65.749	
387.300	51.942	
387.400	70.785	
387.500	62.610	
387.600	69.271	
387.700	64.281	
387.800	64.550	
387.900	48.246	
388.000	37.651	
388.100	61.997	
388.200	60.521	
388.300	56.008	
388.400	58.890	
388.500	59.734	
388.600	46.266	
388.700	70.541	
388.800	57.185	
388.900	64.161	
389.000	38.437	
389.100	60.738	
389.200	70.696	
389.300	64.566	
389.400	50.375	
389.500	57.688	
389.600	60.393	
389.700	61.017	
389.800	63.844	
389.900	54.943	
390.000	64.269	
390.100	52.521	
390.200	49.110	
390.300	50.917	
390.400	33.610	
390.500	44.028	
390.600	31.643	
390.700	32.677	
390.800	34.161	
390.900	32.836	
391.000	33.346	
391.100	14.713	
391.200	31.569	
391.300	24.900	
391.400	32.074	
391.500	42.715	
391.600	9.142	
391.700	16.250	
391.800	0.628	
391.900	18.653	
392.000	11.859	
392.100	1.041	
392.200	6.240	
392.300	-2.512	
392.400	16.016	
392.500	7.554	
392.600	19.251	
392.700	-1.924	
392.800	-8.812	
392.900	-3.346	
393.000	-7.328	
393.100	10.146	
393.200	1.636	
393.300	-13.042	
393.400	-25.279	
393.500	5.875	
393.600	-36.224	
393.700	-25.584	
393.800	-11.484	
393.900	-31.469	
394.000	-14.452	
394.100	-31.058	
394.200	-26.039	
394.300	-27.647	
394.400	-27.674	
394.500	-35.014	
394.600	-33.618	
394.700	-20.359	
394.800	-33.198	
394.900	-15.090	
395.000	-28.894	
395.100	-42.259	
395.200	-38.409	
395.300	-24.682	
395.400	-40.250	
395.500	-48.849	
395.600	-31.654	
395.700	-21.508	
395.800	-56.261	
395.900	-28.602	
396.000	-29.393	
396.100	-29.294	
396.200	-37.626	
396.300	-36.241	
396.400	-37.746	
396.500	-40.216	
396.600	-35.707	
396.700	-23.663	
396.800	-31.768	
396.900	-40.209	
397.000	-32.223	
397.100	-34.953	
397.200	-42.620	
397.300	-47.380	
397.400	-26.867	
397.500	-42.681	
397.600	-19.171	
397.700	-42.685	
397.800	-30.772	
397.900	-39.870	
398.000	-34.975	
398.100	-24.754	
398.200	-30.335	
398.300	-23.591	
398.400	-26.475	
398.500	-29.272	
398.600	-43.308	
398.700	-36.179	
398.800	-33.286	
398.900	-37.130	
399.000	-27.559	
399.100	-36.885	
399.200	-28.793	
399.300	-24.771	
399.400	-24.696	
399.500	-25.985	
399.600	-36.188	
399.700	-19.120	
399.800	-28.186	
399.900	-35.983	
400.000	-28.910	
400.100	-27.474	
400.200	-27.541	
400.300	-27.589	
400.400	-43.712	
400.500	-23.006	
400.600	-36.634	
400.700	-32.724	
400.800	-23.943	
400.900	-36.347	
401.000	-29.666	
401.100	-31.723	
401.200	-28.431	
401.300	-33.901	
401.400	-36.455	
401.500	-39.962	
401.600	-31.835	
401.700	-25.559	
401.800	-13.972	
401.900	-33.127	
402.000	-24.182	
402.100	-45.249	
402.200	-22.564	
402.300	-33.727	
402.400	-21.818	
402.500	-34.240	
402.600	-40.209	
402.700	-45.713	
402.800	-25.866	
402.900	-36.965	
403.000	-36.420	
403.100	-30.069	
403.200	-35.407	
403.300	-22.909	
403.400	-26.973	
403.500	-31.687	
403.600	-45.192	
403.700	-24.311	
403.800	-46.529	
403.900	-30.571	
404.000	-42.974	
404.100	-37.918	
404.200	-35.216	
404.300	-46.737	
404.400	-44.053	
404.500	-29.305	
404.600	-34.115	
404.700	-26.692	
404.800	-40.272	
404.900	-31.535	
405.000	-25.436	
405.100	-36.110	
405.200	-42.278	
405.300	-30.027	
405.400	-33.665	
405.500	-38.712	
405.600	-46.494	
405.700	-11.847	
405.800	-37.063	
405.900	-45.274	
406.000	-24.240	
406.100	-32.534	
406.200	-33.994	
406.300	-29.737	
406.400	-20.367	
406.500	-42.558	
406.600	-30.494	
406.700	-26.071	
406.800	-42.266	
406.900	-26.794	
407.000	-28.132	
407.100	-39.092	
407.200	-39.857	
407.300	-33.567	
407.400	-42.378	
407.500	-34.559	
407.600	-39.961	
407.700	-38.017	
407.800	-27.431	
407.900	-21.827	
408.000	-37.943	
408.100	-41.946	
408.200	-38.197	
408.300	-42.117	
408.400	-41.957	
408.500	-41.315	
408.600	-36.042	
408.700	-35.172	
408.800	-27.138	
408.900	-35.264	
409.000	-33.351	
409.100	-36.941	
409.200	-33.259	
409.300	-37.536	
409.400	-53.316	
409.500	-35.683	
409.600	-38.558	
409.700	-28.844	
409.800	-58.171	
409.900	-47.840	
410.000	-44.496	
410.100	-38.145	
410.200	-45.076	
410.300	-33.817	
410.400	-45.247	
410.500	-52.204	
410.600	-30.777	
410.700	-32.989	
410.800	-52.244	
410.900	-41.072	
411.000	-28.969	
411.100	-51.011	
411.200	-28.571	
411.300	-32.601	
411.400	-37.921	
411.500	-46.868	
411.600	-44.931	
411.700	-31.240	
411.800	-39.250	
411.900	-39.036	
412.000	-27.537	
412.100	-56.995	
412.200	-36.340	
412.300	-36.158	
412.400	-45.053	
412.500	-43.218	
412.600	-36.269	
412.700	-40.890	
412.800	-39.494	
412.900	-62.972	
413.000	-36.281	
413.100	-34.995	
413.200	-36.243	
413.300	-50.738	
413.400	-44.487	
413.500	-34.128	
413.600	-30.837	
413.700	-42.410	
413.800	-36.089	
413.900	-35.919	
414.000	-26.977	
414.100	-41.659	
414.200	-38.832	
414.300	-48.745	
414.400	-34.854	
414.500	-49.867	
414.600	-23.747	
414.700	-35.454	
414.800	-39.546	
414.900	-41.522	
415.000	-46.582	
415.100	-39.208	
415.200	-40.917	
415.300	-47.799	
415.400	-42.191	
415.500	-30.735	
415.600	-51.583	
415.700	-45.594	
415.800	-47.504	
415.900	-34.773	
416.000	-31.417	
416.100	-32.997	
416.200	-52.064	
416.300	-43.061	
416.400	-39.292	
416.500	-40.606	
416.600	-43.582	
416.700	-41.320	
416.800	-36.598	
416.900	-36.001	
417.000	-37.281	
417.100	-47.151	
417.200	-35.293	
417.300	-44.954	
417.400	-39.506	
417.500	-44.733	
417.600	-35.820	
417.700	-37.977	
417.800	-36.810	
417.900	-51.718	
418.000	-41.596	
418.100	-48.770	
418.200	-48.872	
418.300	-29.966	
418.400	-28.850	
418.500	-53.060	
418.600	-38.079	
418.700	-34.992	
418.800	-41.915	
418.900	-46.045	
419.000	-38.342	
419.100	-40.498	
419.200	-37.272	
419.300	-44.103	
419.400	-47.455	
419.500	-29.850	
419.600	-41.249	
419.700	-34.274	
419.800	-42.893	
419.900	-44.921	
420.000	-49.362	
420.100	-37.284	
420.200	-50.254	
420.300	-39.900	
420.400	-28.948	
420.500	-44.836	
420.600	-42.207	
420.700	-39.001	
420.800	-48.170	
420.900	-30.253	
421.000	-41.054	
421.100	-39.969	
421.200	-43.560	
421.300	-41.700	
421.400	-46.104	
421.500	-23.420	
421.600	-43.001	
421.700	-38.391	
421.800	-28.286	
421.900	-27.290	
422.000	-49.606	
422.100	-39.303	
422.200	-43.411	
422.300	-41.843	
422.400	-50.898	
422.500	-43.689	
422.600	-44.006	
422.700	-37.455	
422.800	-27.097	
422.900	-38.406	
423.000	-39.197	
423.100	-36.575	
423.200	-36.812	
423.300	-14.085	
423.400	-49.809	
423.500	-29.257	
423.600	-30.257	
423.700	-57.452	
423.800	-44.625	
423.900	-22.150	
424.000	-25.606	
424.100	-44.727	
424.200	-49.285	
424.300	-36.889	
424.400	-47.130	
424.500	-34.839	
424.600	-40.336	
424.700	-52.892	
424.800	-20.605	
424.900	-46.813	
425.000	-40.319	
425.100	-24.126	
425.200	-52.697	
425.300	-39.496	
425.400	-23.541	
425.500	-57.554	
425.600	-26.933	
425.700	-34.700	
425.800	-36.371	
425.900	-39.393	
426.000	-39.031	
426.100	-32.675	
426.200	-30.153	
426.300	-45.481	
426.400	-27.241	
426.500	-56.668	
426.600	-46.016	
426.700	-31.317	
426.800	-31.010	
426.900	-44.085	
427.000	-40.977	
427.100	-41.279	
427.200	-38.468	
427.300	-26.221	
427.400	-29.386	
427.500	-37.553	
427.600	-43.475	
427.700	-21.418	
427.800	-35.673	
427.900	-47.288	
428.000	-34.479	
428.100	-45.092	
428.200	-40.507	
428.300	-43.892	
428.400	-28.589	
428.500	-41.666	
428.600	-25.639	
428.700	-45.313	
428.800	-42.815	
428.900	-34.853	
429.000	-43.094	
429.100	-35.290	
429.200	-28.896	
429.300	-31.443	
429.400	-34.227	
429.500	-29.010	
429.600	-45.366	
429.700	-30.044	
429.800	-38.965	
429.900	-39.977	
430.000	-22.554	
430.100	-32.749	
430.200	-34.813	
430.300	-30.752	
430.400	-40.165	
430.500	-26.508	
430.600	-44.817	
430.700	-56.887	
430.800	-34.862	
430.900	-34.210	
431.000	-38.017	
431.100	-23.736	
431.200	-25.417	
431.300	-49.321	
431.400	-37.995	
431.500	-44.381	
431.600	-28.371	
431.700	-46.027	
431.800	-46.288	
431.900	-30.226	
432.000	-23.601	
432.100	-35.268	
432.200	-25.134	
432.300	-40.363	
432.400	-36.533	
432.500	-47.009	
432.600	-34.275	
432.700	-30.318	
432.800	-27.798	
432.900	-42.442	
433.000	-33.559	
433.100	-29.140	
433.200	-42.690	
433.300	-30.078	
433.400	-28.637	
433.500	-25.659	
433.600	-31.139	
433.700	-41.331	
433.800	-35.404	
433.900	-54.180	
434.000	-40.503	
434.100	-15.828	
434.200	-38.311	
434.300	-30.684	
434.400	-42.557	
434.500	-39.954	
434.600	-42.310	
434.700	-29.754	
434.800	-44.526	
434.900	-30.031	
435.000	-48.232	
435.100	-20.553	
435.200	-31.326	
435.300	-48.825	
435.400	-32.687	
435.500	-30.709	
435.600	-34.047	
435.700	-39.719	
435.800	-42.027	
435.900	-31.015	
436.000	-50.990	
436.100	-32.188	
436.200	-35.913	
436.300	-25.106	
436.400	-30.567	
436.500	-33.475	
436.600	-23.662	
436.700	-29.439	
436.800	-38.383	
436.900	-25.933	
437.000	-34.420	
437.100	-28.746	
437.200	-10.761	
437.300	-37.575	
437.400	-39.149	
437.500	-20.073	
437.600	-34.655	
437.700	-41.869	
437.800	-16.723	
437.900	-43.742	
438.000	-44.253	
438.100	-10.699	
438.200	-41.979	
438.300	-39.582	
438.400	-37.822	
438.500	-20.568	
438.600	-29.102	
438.700	-36.366	
438.800	-33.018	
438.900	-28.828	
439.000	-48.033	
439.100	-22.022	
439.200	-39.056	
439.300	-34.369	
439.400	-35.715	
439.500	-37.305	
439.600	-33.774	
439.700	-28.287	
439.800	-30.174	
439.900	-24.575	
440.000	-23.695	
440.100	-38.704	
440.200	-30.743	
440.300	-41.339	
440.400	-46.132	
440.500	-22.469	
440.600	-38.831	
440.700	-22.957	
440.800	-39.766	
440.900	-35.352	
441.000	-28.995	
441.100	-34.950	
441.200	-43.560	
441.300	-35.492	
441.400	-22.614	
441.500	-33.632	
441.600	-21.453	
441.700	-43.895	
441.800	-13.642	
441.900	-31.883	
442.000	-35.233	
442.100	-17.380	
442.200	-32.295	
442.300	-26.179	
442.400	-25.774	
442.500	-26.364	
442.600	-24.068	
442.700	-33.614	
442.800	-36.118	
442.900	-31.352	
443.000	-42.845	
443.100	-31.903	
443.200	-42.836	
443.300	-21.396	
443.400	-25.820	
443.500	-32.191	
443.600	-33.242	
443.700	-33.888	
443.800	-41.462	
443.900	-7.152	
444.000	-27.867	
444.100	-16.911	
444.200	-39.511	
444.300	-15.059	
444.400	-25.015	
444.500	-22.807	
444.600	-23.112	
444.700	-33.063	
444.800	-31.068	
444.900	-31.305	
445.000	-31.529	
445.100	-28.286	
445.200	-32.165	
445.300	-15.634	
445.400	-27.035	
445.500	-26.371	
445.600	-22.874	
445.700	-34.001	
445.800	-28.191	
445.900	-43.854	
446.000	-22.655	
446.100	-17.652	
446.200	-36.452	
446.300	-27.257	
446.400	-16.299	
446.500	-38.878	
446.600	-16.778	
446.700	-26.042	
446.800	-24.501	
446.900	-37.284	
447.000	-17.433	
447.100	-28.070	
447.200	-14.492	
447.300	-27.834	
447.400	-35.458	
447.500	-28.734	
447.600	-28.532	
447.700	-13.987	
447.800	-18.210	
447.900	-28.740	
448.000	-34.841	
448.100	-45.362	
448.200	-11.968	
448.300	-33.270	
448.400	-29.040	
448.500	-42.745	
448.600	-31.045	
448.700	-18.673	
448.800	-14.851	
448.900	-24.677	
449.000	-30.643	
449.100	-26.142	
449.200	-28.795	
449.300	-30.394	
449.400	-29.892	
449.500	-45.335	
449.600	-43.165	
449.700	-16.948	
449.800	-34.410	
449.900	-26.508	
450.000	-28.595	
450.100	-23.145	
450.200	-23.311	
450.300	-13.835	
450.400	-29.579	
450.500	-32.929	
450.600	-24.843	
450.700	-33.588	
450.800	-31.736	
450.900	-27.122	
451.000	-15.914	
451.100	-31.704	
451.200	-34.469	
451.300	-22.013	
451.400	-29.483	
451.500	-31.112	
451.600	-27.640	
451.700	-16.408	
451.800	-25.258	
451.900	-22.341	
452.000	-39.699	
452.100	-11.817	
452.200	-30.338	
452.300	-18.258	
452.400	-23.510	
452.500	-17.002	
452.600	-19.937	
452.700	-33.885	
452.800	-26.080	
452.900	-17.697	
453.000	-25.221	
453.100	-40.627	
453.200	-35.957	
453.300	-15.388	
453.400	-19.327	
453.500	-31.718	
453.600	-26.977	
453.700	-24.525	
453.800	-28.759	
453.900	-33.173	
454.000	-27.498	
454.100	-21.157	
454.200	-27.692	
454.300	-23.139	
454.400	-26.705	
454.500	-30.266	
454.600	-31.261	
454.700	-14.718	
454.800	-33.174	
454.900	-30.110	
455.000	-24.623	
455.100	-11.898	
455.200	-47.783	
455.300	-8.521	
455.400	-10.358	
455.500	-30.371	
455.600	-23.452	
455.700	-39.475	
455.800	-20.223	
455.900	-28.998	
456.000	-28.232	
456.100	-27.397	
456.200	-22.403	
456.300	-7.688	
456.400	-23.215	
456.500	-22.962	
456.600	-6.929	
456.700	-16.276	
456.800	-26.499	
456.900	-36.192	
457.000	-10.871	
457.100	-30.458	
457.200	-34.510	
457.300	-22.323	
457.400	-34.067	
457.500	-37.187	
457.600	-37.020	
457.700	-17.555	
457.800	-19.751	
457.900	-25.132	
458.000	-4.617	
458.100	-23.526	
458.200	-33.324	
458.300	-33.375	
458.400	-24.403	
458.500	-15.533	
458.600	-13.246	
458.700	-19.895	
458.800	-27.833	
458.900	-36.677	
459.000	-15.046	
459.100	-27.450	
459.200	-28.780	
459.300	-17.636	
459.400	-29.243	
459.500	-18.961	
459.600	-22.474	
459.700	-19.555	
459.800	-22.262	
459.900	-23.794	
460.000	-41.446	
460.100	-17.288	
460.200	-23.258	
460.300	-29.020	
460.400	-15.138	
460.500	-22.980	
460.600	-33.650	
460.700	-21.224	
460.800	-27.747	
460.900	-8.440	
461.000	-25.838	
461.100	-23.504	
461.200	-23.976	
461.300	-27.668	
461.400	-18.949	
461.500	-25.038	
461.600	-27.212	
461.700	-24.136	
461.800	-15.833	
461.900	-19.619	
462.000	-29.832	
462.100	-35.023	
462.200	-22.403	
462.300	-19.380	
462.400	-26.498	
462.500	-0.900	
462.600	-23.907	
462.700	-14.200	
462.800	-24.928	
462.900	-32.032	
463.000	-18.484	
463.100	-17.953	
463.200	-40.432	
463.300	-17.091	
463.400	-15.495	
463.500	-21.561	
463.600	-21.047	
463.700	-13.914	
463.800	-26.804	
463.900	-22.354	
464.000	-34.252	
464.100	-17.577	
464.200	-11.971	
464.300	-33.124	
464.400	-33.560	
464.500	-27.762	
464.600	-9.568	
464.700	-28.754	
464.800	-40.374	
464.900	-15.118	
465.000	-11.871	
465.100	-40.148	
465.200	0.401	
465.300	-26.833	
465.400	-19.716	
465.500	-26.917	
465.600	-22.686	
465.700	-31.044	
465.800	-17.863	
465.900	-26.508	
466.000	-24.523	
466.100	-19.426	
466.200	-23.973	
466.300	-24.093	
466.400	-31.715	
466.500	-17.818	
466.600	-16.043	
466.700	-29.947	
466.800	-20.414	
466.900	-25.131	
467.000	-29.531	
467.100	-33.458	
467.200	-17.106	
467.300	-42.858	
467.400	-28.105	
467.500	-12.684	
467.600	-23.655	
467.700	-7.491	
467.800	-23.073	
467.900	-22.110	
468.000	-28.127	
468.100	-9.512	
468.200	-17.386	
468.300	-22.647	
468.400	-20.175	
468.500	-11.514	
468.600	-19.902	
468.700	-14.504	
468.800	-23.701	
468.900	-20.352	
469.000	-25.329	
469.100	-30.645	
469.200	-17.687	
469.300	-16.034	
469.400	-8.886	
469.500	-23.207	
469.600	-13.724	
469.700	-29.587	
469.800	-13.902	
469.900	-19.363	
470.000	-18.333	
470.100	-28.328	
470.200	-34.094	
470.300	-29.952	
470.400	-15.166	
470.500	-25.356	
470.600	-22.430	
470.700	-19.629	
470.800	-25.632	
470.900	-15.530	
471.000	-16.231	
471.100	-23.590	
471.200	-21.203	
471.300	-11.698	
471.400	-18.865	
471.500	-22.346	
471.600	-12.137	
471.700	-25.658	
471.800	-16.848	
471.900	-14.763	
472.000	-13.449	
472.100	-30.308	
472.200	-9.133	
472.300	-17.018	
472.400	-32.984	
472.500	-14.887	
472.600	-16.278	
472.700	-34.934	
472.800	-21.093	
472.900	-20.697	
473.000	-12.751	
473.100	-22.788	
473.200	-28.124	
473.300	-24.680	
473.400	-11.681	
473.500	-20.854	
473.600	-38.576	
473.700	-12.104	
473.800	-29.455	
473.900	-5.168	
474.000	-22.645	
474.100	-35.424	
474.200	-21.190	
474.300	-3.477	
474.400	-13.344	
474.500	-17.995	
474.600	-18.161	
474.700	-21.534	
474.800	-21.638	
474.900	-5.615	
475.000	-14.101	
475.100	-23.799	
475.200	-34.616	
475.300	-1.256	
475.400	-29.864	
475.500	-15.933	
475.600	-17.212	
475.700	-40.545	
475.800	-17.945	
475.900	-9.904	
476.000	-27.937	
476.100	-30.520	
476.200	-15.941	
476.300	-8.681	
476.400	-5.380	
476.500	-28.438	
476.600	-24.945	
476.700	-20.035	
476.800	-15.477	
476.900	-22.264	
477.000	-15.823	
477.100	-27.572	
477.200	-24.856	
477.300	-28.994	
477.400	-27.922	
477.500	-20.944	
477.600	-20.856	
477.700	-26.677	
477.800	-6.456	
477.900	-14.770	
478.000	-19.729	
478.100	-21.597	
478.200	-22.474	
478.300	-22.964	
478.400	-15.536	
478.500	-22.030	
478.600	-35.605	
478.700	-12.387	
478.800	-31.157	
478.900	-24.568	
479.000	-13.832	
479.100	-9.330	
479.200	-17.659	
479.300	-21.328	
479.400	-24.315	
479.500	-9.968	
479.600	-32.349	
479.700	-18.339	
479.800	-21.872	
479.900	2.149	
480.000	-12.173	
480.100	0.802	
480.200	4.499	
480.300	21.190	
480.400	29.653	
480.500	26.537	
480.600	37.846	
480.700	16.811	
480.800	35.800	
480.900	35.450	
481.000	46.010	
481.100	35.128	
481.200	42.295	
481.300	46.534	
481.400	38.428	
481.500	59.791	
481.600	30.900	
481.700	36.017	
481.800	42.156	
481.900	45.727	
482.000	43.803	
482.100	45.243	
482.200	40.633	
482.300	52.531	
482.400	44.753	
482.500	47.318	
482.600	36.465	
482.700	46.480	
482.800	36.236	
482.900	53.887	
483.000	31.588	
483.100	49.523	
483.200	40.295	
483.300	21.454	
483.400	27.161	
483.500	24.326	
483.600	52.904	
483.700	43.069	
483.800	25.744	
483.900	27.674	
484.000	49.093	
484.100	42.559	
484.200	34.101	
484.300	37.032	
484.400	44.063	
484.500	38.607	
484.600	23.443	
484.700	27.050	
484.800	42.642	
484.900	36.303	
485.000	55.199	
485.100	33.714	
485.200	36.834	
485.300	28.497	
485.400	35.292	
485.500	25.406	
485.600	36.071	
485.700	21.512	
485.800	41.499	
485.900	30.316	
486.000	38.844	
486.100	42.879	
486.200	39.729	
486.300	54.520	
486.400	33.072	
486.500	28.415	
486.600	46.680	
486.700	38.000	
486.800	26.126	
486.900	56.955	
487.000	40.270	
487.100	40.142	
487.200	43.592	
487.300	58.529	
487.400	51.634	
487.500	58.020	
487.600	74.663	
487.700	59.197	
487.800	40.176	
487.900	62.356	
488.000	53.866	
488.100	60.938	
488.200	46.768	
488.300	35.498	
488.400	82.575	
488.500	54.754	
488.600	59.438	
488.700	55.887	
488.800	76.725	
488.900	48.010	
489.000	59.811	
489.100	61.165	
489.200	63.568	
489.300	61.673	
489.400	58.658	
489.500	59.300	
489.600	54.026	
489.700	53.995	
489.800	69.207	
489.900	57.968	
490.000	57.665	
490.100	71.264	
490.200	73.365	
490.300	59.621	
490.400	65.507	
490.500	65.007	
490.600	58.269	
490.700	65.491	
490.800	69.586	
490.900	51.880	
491.000	66.085	
491.100	66.438	
491.200	64.235	
491.300	64.847	
491.400	72.368	
491.500	55.715	
491.600	71.516	
491.700	62.489	
491.800	67.287	
491.900	70.728	
492.000	62.463	
492.100	70.547	
492.200	54.545	
492.300	71.242	
492.400	48.446	
492.500	75.775	
492.600	61.388	
492.700	48.665	
492.800	65.891	
492.900	62.628	
493.000	83.286	
493.100	67.206	
493.200	70.288	
493.300	52.749	
493.400	65.253	
493.500	73.885	
493.600	61.835	
493.700	72.556	
493.800	68.028	
493.900	52.571	
494.000	43.374	
494.100	47.983	
494.200	66.658	
494.300	73.812	
494.400	77.439	
494.500	63.208	
494.600	76.523	
494.700	57.978	
494.800	84.620	
494.900	61.748	
495.000	56.367	
495.100	66.619	
495.200	69.570	
495.300	58.706	
495.400	63.868	
495.500	49.974	
495.600	65.271	
495.700	76.567	
495.800	63.316	
495.900	71.565	
496.000	64.028	
496.100	70.950	
496.200	68.442	
496.300	68.184	
496.400	61.729	
496.500	78.265	
496.600	70.705	
496.700	75.809	
496.800	64.562	
496.900	68.786	
497.000	73.225	
497.100	61.710	
497.200	67.688	
497.300	65.739	
497.400	80.847	
497.500	63.438	
497.600	66.810	
497.700	76.513	
497.800	67.215	
497.900	70.095	
498.000	72.205	
498.100	76.941	
498.200	58.336	
498.300	83.345	
498.400	58.442	
498.500	84.875	
498.600	67.421	
498.700	51.797	
498.800	73.480	
498.900	60.055	
499.000	65.277	
499.100	65.683	
499.200	68.384	
499.300	69.449	
499.400	60.706	
499.500	66.820	
499.600	58.914	
499.700	56.705	
499.800	64.805	
499.900	67.317	
500.000	63.152	
500.100	63.717	
500.200	62.198	
500.300	67.450	
500.400	67.618	
500.500	60.356	
500.600	60.569	
500.700	60.417	
500.800	71.139	
500.900	65.121	
501.000	66.948	
501.100	52.650	
501.200	62.268	
501.300	66.232	
501.400	59.200	
501.500	51.486	
501.600	74.629	
501.700	63.806	
501.800	34.564	
501.900	68.315	
502.000	72.437	
502.100	66.768	
502.200	44.129	
502.300	67.550	
502.400	79.663	
502.500	54.149	
502.600	65.562	
502.700	70.662	
502.800	67.264	
502.900	65.101	
503.000	69.505	
503.100	53.211	
503.200	58.908	
503.300	72.030	
503.400	59.459	
503.500	80.255	
503.600	63.980	
503.700	75.682	
503.800	62.845	
503.900	59.328	
504.000	76.598	
504.100	56.026	
504.200	52.124	
504.300	85.144	
504.400	72.101	
504.500	72.745	
504.600	42.991	
504.700	76.380	
504.800	53.655	
504.900	63.478	
505.000	72.957	
505.100	59.897	
505.200	61.303	
505.300	60.785	
505.400	67.854	
505.500	64.221	
505.600	71.902	
505.700	55.666	
505.800	47.620	
505.900	57.468	
506.000	67.255	
506.100	68.556	
506.200	54.457	
506.300	66.879	
506.400	68.333	
506.500	65.976	
506.600	57.203	
506.700	63.909	
506.800	69.726	
506.900	75.335	
507.000	67.789	
507.100	60.803	
507.200	59.279	
507.300	60.686	
507.400	55.105	
507.500	72.507	
507.600	65.385	
507.700	62.177	
507.800	64.934	
507.900	59.409	
508.000	38.191	
508.100	60.415	
508.200	66.818	
508.300	64.595	
508.400	45.577	
508.500	48.754	
508.600	74.397	
508.700	60.809	
508.800	63.460	
508.900	55.293	
509.000	61.804	
509.100	76.610	
509.200	53.045	
509.300	63.532	
509.400	44.193	
509.500	58.263	
509.600	67.257	
509.700	55.959	
509.800	72.146	
509.900	57.424	
510.000	59.953	
510.100	58.660	
510.200	39.162	
510.300	73.680	
510.400	63.580	
510.500	67.565	
510.600	50.801	
510.700	51.462	
510.800	51.966	
510.900	61.388	
511.000	61.300	
511.100	56.903	
511.200	65.844	
511.300	60.669	
511.400	60.742	
511.500	46.882	
511.600	73.782	
511.700	55.427	
511.800	63.426	
511.900	66.920	
512.000	57.620	
512.100	60.286	
512.200	61.351	
512.300	74.033	
512.400	52.096	
512.500	62.981	
512.600	54.791	
512.700	46.038	
512.800	61.897	
512.900	67.402	
513.000	43.108	
513.100	60.338	
513.200	70.207	
513.300	66.262	
513.400	66.613	
513.500	57.560	
513.600	64.456	
513.700	53.647	
513.800	82.186	
513.900	49.825	
514.000	58.169	
514.100	60.787	
514.200	58.472	
514.300	58.768	
514.400	75.205	
514.500	55.845	
514.600	53.102	
514.700	71.027	
514.800	61.566	
514.900	56.685	
515.000	53.732	
515.100	83.320	
515.200	61.641	
515.300	61.209	
515.400	62.946	
515.500	59.974	
515.600	64.470	
515.700	61.007	
515.800	66.554	
515.900	58.095	
516.000	56.789	
516.100	57.912	
516.200	54.438	
516.300	44.519	
516.400	49.595	
516.500	75.169	
516.600	57.212	
516.700	73.375	
516.800	35.263	
516.900	56.205	
517.000	63.642	
517.100	51.566	
517.200	74.917	
517.300	55.826	
517.400	59.001	
517.500	70.080	
517.600	65.024	
517.700	54.508	
517.800	56.737	
517.900	64.493	
518.000	64.222	
518.100	63.366	
518.200	57.990	
518.300	64.038	
518.400	48.464	
518.500	55.625	
518.600	71.307	
518.700	66.718	
518.800	63.844	
518.900	54.528	
519.000	58.687	
519.100	51.888	
519.200	59.331	
519.300	47.875	
519.400	59.142	
519.500	63.735	
519.600	43.570	
519.700	50.349	
519.800	51.893	
519.900	62.089	
520.000	53.314	
520.100	63.929	
520.200	54.697	
520.300	62.620	
520.400	64.806	
520.500	53.658	
520.600	53.227	
520.700	51.981	
520.800	45.632	
520.900	57.781	
521.000	64.089	
521.100	59.465	
521.200	53.127	
521.300	60.590	
521.400	60.916	
521.500	54.319	
521.600	57.057	
521.700	60.629	
521.800	45.545	
521.900	47.472	
522.000	64.919	
522.100	57.548	
522.200	63.127	
522.300	51.493	
522.400	61.068	
522.500	64.058	
522.600	65.630	
522.700	56.367	
522.800	66.920	
522.900	59.045	
523.000	57.042	
523.100	71.476	
523.200	55.623	
523.300	49.685	
523.400	66.818	
523.500	53.248	
523.600	52.058	
523.700	55.411	
523.800	63.232	
523.900	50.346	
524.000	69.269	
524.100	56.671	
524.200	71.757	
524.300	57.063	
524.400	58.543	
524.500	50.347	
524.600	53.860	
524.700	35.888	
524.800	62.127	
524.900	65.537	
525.000	39.463	
525.100	51.882	
525.200	49.695	
525.300	52.439	
525.400	50.673	
525.500	45.621	
525.600	61.480	
525.700	57.372	
525.800	55.888	
525.900	51.751	
526.000	62.053	
526.100	68.202	
526.200	52.031	
526.300	47.877	
526.400	62.728	
526.500	61.221	
526.600	69.119	
526.700	60.843	
526.800	59.474	
526.900	67.570	
527.000	48.988	
527.100	57.674	
527.200	53.723	
527.300	55.907	
527.400	57.275	
527.500	45.271	
527.600	64.536	
527.700	49.411	
527.800	71.278	
527.900	54.406	
528.000	70.614	
528.100	55.745	
528.200	45.408	
528.300	69.635	
528.400	72.363	
528.500	65.648	
528.600	64.307	
528.700	56.166	
528.800	51.201	
528.900	46.479	
529.000	64.525	
529.100	63.556	
529.200	61.819	
529.300	65.976	
529.400	55.204	
529.500	47.083	
529.600	57.294	
529.700	60.180	
529.800	72.997	
529.900	64.191	
530.000	43.139	
530.100	62.281	
530.200	58.035	
530.300	59.174	
530.400	55.465	
530.500	51.896	
530.600	63.780	
530.700	59.952	
530.800	52.066	
530.900	66.611	
531.000	67.840	
531.100	50.471	
531.200	51.973	
531.300	45.606	
531.400	76.514	
531.500	68.835	
531.600	61.740	
531.700	61.188	
531.800	67.082	
531.900	59.958	
532.000	56.988	
532.100	61.388	
532.200	58.211	
532.300	50.813	
532.400	59.370	
532.500	60.863	
532.600	58.354	
532.700	61.425	
532.800	58.200	
532.900	44.655	
533.000	64.628	
533.100	46.426	
533.200	52.688	
533.300	76.661	
533.400	56.528	
533.500	52.618	
533.600	50.717	
533.700	63.925	
533.800	61.782	
533.900	57.750	
534.000	54.458	
534.100	58.031	
534.200	58.028	
534.300	47.451	
534.400	57.291	
534.500	62.487	
534.600	57.245	
534.700	49.453	
534.800	61.104	
534.900	60.705	
535.000	60.881	
535.100	45.880	
535.200	52.619	
535.300	59.434	
535.400	68.599	
535.500	55.096	
535.600	56.361	
535.700	56.324	
535.800	46.491	
535.900	59.720	
536.000	67.940	
536.100	54.824	
536.200	55.886	
536.300	54.261	
536.400	53.707	
536.500	63.682	
536.600	66.110	
536.700	49.298	
536.800	64.316	
536.900	58.946	
537.000	63.259	
537.100	64.698	
537.200	49.224	
537.300	58.864	
537.400	56.690	
537.500	51.562	
537.600	48.478	
537.700	62.739	
537.800	65.912	
537.900	61.820	
538.000	50.924	
538.100	62.751	
538.200	56.404	
538.300	56.761	
538.400	61.286	
538.500	58.566	
538.600	56.494	
538.700	58.068	
538.800	56.074	
538.900	50.650	
539.000	61.885	
539.100	52.182	
539.200	59.882	
539.300	54.880	
539.400	59.925	
539.500	40.917	
539.600	72.821	
539.700	66.124	
539.800	57.373	
539.900	52.853	
540.000	59.253	
540.100	58.736	
540.200	55.709	
540.300	32.379	
540.400	33.400	
540.500	39.151	
540.600	39.352	
540.700	35.403	
540.800	38.681	
540.900	35.443	
541.000	21.136	
541.100	20.984	
541.200	21.042	
541.300	16.331	
541.400	27.846	
541.500	24.377	
541.600	39.960	
541.700	4.177	
541.800	33.019	
541.900	10.051	
542.000	14.088	
542.100	16.850	
542.200	1.716	
542.300	12.490	
542.400	3.109	
542.500	3.248	
542.600	3.518	
542.700	-13.425	
542.800	-4.669	
542.900	0.211	
543.000	-11.297	
543.100	-10.901	
543.200	-4.368	
543.300	-8.584	
543.400	-17.932	
543.500	-21.199	
543.600	-12.482	
543.700	-29.506	
543.800	-26.352	
543.900	-20.651	
544.000	-23.483	
544.100	-18.541	
544.200	-22.064	
544.300	-25.542	
544.400	-30.944	
544.500	-24.953	
544.600	-26.782	
544.700	-27.232	
544.800	-34.339	
544.900	-28.024	
545.000	-30.600	
545.100	-32.856	
545.200	-36.600	
545.300	-24.871	
545.400	-25.274	
545.500	-36.074	
545.600	-33.193	
545.700	-31.330	
545.800	-37.126	
545.900	-40.374	
546.000	-41.703	
546.100	-28.757	
546.200	-34.243	
546.300	-42.815	
546.400	-43.612	
546.500	-39.354	
546.600	-41.534	
546.700	-35.947	
546.800	-26.048	
546.900	-39.786	
547.000	-43.831	
547.100	-35.404	
547.200	-60.019	
547.300	-33.267	
547.400	-29.778	
547.500	-26.929	
547.600	-25.720	
547.700	-36.314	
547.800	-34.741	
547.900	-39.413	
548.000	-15.134	
548.100	-41.137	
548.200	-36.945	
548.300	-30.959	
548.400	-29.983	
548.500	-37.406	
548.600	-29.463	
548.700	-35.398	
548.800	-41.432	
548.900	-29.928	
549.000	-31.588	
549.100	-22.906	
549.200	-30.797	
549.300	-34.396	
549.400	-31.965	
549.500	-36.803	
549.600	-42.540	
549.700	-29.013	
549.800	-34.610	
549.900	-27.532	
550.000	-37.721	
550.100	-20.672	
550.200	-28.026	
550.300	-30.506	
550.400	-35.409	
550.500	-23.605	
550.600	-45.202	
550.700	-39.930	
550.800	-39.927	
550.900	-25.702	
551.000	-39.025	
551.100	-23.375	
551.200	-34.574	
551.300	-24.568	
551.400	-39.140	
551.500	-33.364	
551.600	-24.514	
551.700	-27.693	
551.800	-36.243	
551.900	-35.574	
552.000	-34.423	
552.100	-29.351	
552.200	-30.779	
552.300	-39.401	
552.400	-22.863	
552.500	-37.054	
552.600	-36.217	
552.700	-25.010	
552.800	-31.302	
552.900	-36.318	
553.000	-47.451	
553.100	-47.476	
553.200	-35.776	
553.300	-44.377	
553.400	-11.484	
553.500	-49.785	
553.600	-30.447	
553.700	-34.415	
553.800	-26.396	
553.900	-38.499	
554.000	-35.273	
554.100	-33.311	
554.200	-37.267	
554.300	-47.232	
554.400	-42.171	
554.500	-37.888	
554.600	-31.581	
554.700	-45.225	
554.800	-33.747	
554.900	-36.838	
555.000	-38.344	
555.100	-42.664	
555.200	-37.095	
555.300	-33.982	
555.400	-22.214	
555.500	-38.952	
555.600	-32.717	
555.700	-33.675	
555.800	-37.720	
555.900	-37.770	
556.000	-25.858	
556.100	-52.957	
556.200	-40.838	
556.300	-29.287	
556.400	-38.750	
556.500	-33.364	
556.600	-28.998	
556.700	-46.248	
556.800	-35.212	
556.900	-41.827	
557.000	-41.709	
557.100	-35.626	
557.200	-28.157	
557.300	-49.554	
557.400	-43.301	
557.500	-50.240	
557.600	-38.676	
557.700	-33.055	
557.800	-42.752	
557.900	-32.051	
558.000	-49.923	
558.100	-39.064	
558.200	-33.537	
558.300	-30.254	
558.400	-53.000	
558.500	-49.973	
558.600	-30.586	
558.700	-43.403	
558.800	-34.886	
558.900	-40.304	
559.000	-35.608	
559.100	-30.727	
559.200	-45.445	
559.300	-24.073	
559.400	-45.785	
559.500	-40.726	
559.600	-37.794	
559.700	-43.084	
559.800	-39.723	
559.900	-47.124	
560.000	-38.078	
560.100	-40.057	
560.200	-30.988	
560.300	-27.227	
560.400	-39.544	
560.500	-46.465	
560.600	-44.709	
560.700	-42.240	
560.800	-44.099	
560.900	-31.384	
561.000	-30.341	
561.100	-35.713	
561.200	-42.948	
561.300	-37.357	
561.400	-40.274	
561.500	-37.672	
561.600	-30.662	
561.700	-48.108	
561.800	-37.633	
561.900	-50.333	
562.000	-35.928	
562.100	-37.293	
562.200	-37.064	
562.300	-37.389	
562.400	-38.081	
562.500	-63.738	
562.600	-25.969	
562.700	-19.812	
562.800	-42.460	
562.900	-41.167	
563.000	-44.123	
563.100	-36.055	
563.200	-37.846	
563.300	-57.389	
563.400	-43.786	
563.500	-32.395	
563.600	-51.807	
563.700	-38.927	
563.800	-37.260	
563.900	-50.306	
564.000	-42.881	
564.100	-30.979	
564.200	-37.939	
564.300	-44.999	
564.400	-37.523	
564.500	-30.998	
564.600	-51.044	
564.700	-37.620	
564.800	-43.146	
564.900	-39.235	
565.000	-39.063	
565.100	-45.382	
565.200	-32.046	
565.300	-42.183	
565.400	-48.644	
565.500	-35.804	
565.600	-41.705	
565.700	-37.624	
565.800	-31.729	
565.900	-60.982	
566.000	-28.518	
566.100	-43.107	
566.200	-43.661	
566.300	-27.879	
566.400	-53.030	
566.500	-34.551	
566.600	-40.963	
566.700	-54.111	
566.800	-35.480	
566.900	-39.877	
567.000	-37.817	
567.100	-45.312	
567.200	-42.015	
567.300	-39.486	
567.400	-43.310	
567.500	-31.903	
567.600	-34.135	
567.700	-40.070	
567.800	-34.150	
567.900	-43.435	
568.000	-44.731	
568.100	-40.718	
568.200	-38.060	
568.300	-33.810	
568.400	-41.663	
568.500	-47.513	
568.600	-21.201	
568.700	-37.284	
568.800	-41.966	
568.900	-47.691	
569.000	-41.131	
569.100	-33.676	
569.200	-36.666	
569.300	-40.550	
569.400	-50.510	
569.500	-42.536	
569.600	-26.601	
569.700	-59.650	
569.800	-31.711	
569.900	-45.328	
570.000	-32.268	
570.100	-44.375	
570.200	-48.565	
570.300	-34.817	
570.400	-47.691	
570.500	-39.865	
570.600	-46.466	
570.700	-38.851	
570.800	-36.324	
570.900	-38.263	
571.000	-39.910	
571.100	-45.960	
571.200	-35.397	
571.300	-33.652	
571.400	-33.120	
571.500	-42.089	
571.600	-40.274	
571.700	-50.291	
571.800	-35.637	
571.900	-28.168	
572.000	-32.597	
572.100	-35.136	
572.200	-41.479	
572.300	-49.542	
572.400	-32.050	
572.500	-31.846	
572.600	-46.907	
572.700	-40.338	
572.800	-34.666	
572.900	-50.883	
573.000	-35.762	
573.100	-37.861	
573.200	-39.114	
573.300	-40.900	
573.400	-36.672	
573.500	-32.284	
573.600	-36.579	
573.700	-35.505	
573.800	-38.970	
573.900	-34.786	
574.000	-37.734	
574.100	-36.232	
574.200	-39.738	
574.300	-49.653	
574.400	-26.632	
574.500	-49.368	
574.600	-65.513	
574.700	-25.552	
574.800	-38.694	
574.900	-45.897	
575.000	-33.626	
575.100	-49.807	
575.200	-40.154	
575.300	-50.358	
575.400	-38.781	
575.500	-22.358	
575.600	-40.748	
575.700	-51.023	
575.800	-51.258	
575.900	-35.491	
576.000	-50.011	
576.100	-46.546	
576.200	-26.809	
576.300	-36.596	
576.400	-36.091	
576.500	-29.944	
576.600	-33.917	
576.700	-54.800	
576.800	-35.845	
576.900	-39.235	
577.000	-41.563	
577.100	-44.741	
577.200	-35.406	
577.300	-43.798	
577.400	-27.282	
577.500	-33.862	
577.600	-43.822	
577.700	-33.760	
577.800	-46.907	
577.900	-46.576	
578.000	-48.217	
578.100	-26.937	
578.200	-37.342	
578.300	-26.896	
578.400	-37.248	
578.500	-31.656	
578.600	-46.963	
578.700	-30.272	
578.800	-48.108	
578.900	-29.042	
579.000	-24.193	
579.100	-24.743	
579.200	-30.660	
579.300	-38.096	
579.400	-46.672	
579.500	-27.614	
579.600	-38.857	
579.700	-34.863	
579.800	-43.921	
579.900	-32.692	
580.000	-59.233	
580.100	-34.469	
580.200	-41.971	
580.300	-42.827	
580.400	-26.887	
580.500	-24.859	
580.600	-35.995	
580.700	-40.094	
580.800	-33.433	
580.900	-24.740	
581.000	-30.614	
581.100	-35.891	
581.200	-44.248	
581.300	-36.776	
581.400	-22.438	
581.500	-37.173	
581.600	-39.011	
581.700	-41.912	
581.800	-34.456	
581.900	-23.838	
582.000	-40.726	
582.100	-23.575	
582.200	-42.060	
582.300	-36.623	
582.400	-28.886	
582.500	-35.661	
582.600	-35.330	
582.700	-50.387	
582.800	-37.618	
582.900	-32.797	
583.000	-38.735	
583.100	-31.315	
583.200	-45.454	
583.300	-40.397	
583.400	-36.889	
583.500	-36.199	
583.600	-41.817	
583.700	-34.911	
583.800	-29.993	
583.900	-33.433	
584.000	-32.184	
584.100	-28.193	
584.200	-50.177	
584.300	-14.348	
584.400	-39.065	
584.500	-45.375	
584.600	-44.381	
584.700	-33.376	
584.800	-30.808	
584.900	-21.338	
585.000	-23.985	
585.100	-31.969	
585.200	-36.534	
585.300	-35.813	
585.400	-28.437	
585.500	-36.194	
585.600	-22.821	
585.700	-39.548	
585.800	-34.761	
585.900	-32.398	
586.000	-32.562	
586.100	-43.838	
586.200	-50.770	
586.300	-42.973	
586.400	-19.853	
586.500	-31.479	
586.600	-46.346	
586.700	-40.550	
586.800	-41.495	
586.900	-24.435	
587.000	-16.190	
587.100	-34.912	
587.200	-36.750	
587.300	-42.167	
587.400	-26.137	
587.500	-28.568	
587.600	-45.319	
587.700	-34.692	
587.800	-18.819	
587.900	-28.389	
588.000	-43.044	
588.100	-40.690	
588.200	-30.340	
588.300	-38.016	
588.400	-29.139	
588.500	-28.018	
588.600	-32.746	
588.700	-35.267	
588.800	-26.045	
588.900	-28.748	
589.000	-32.834	
589.100	-39.073	
589.200	-21.580	
589.300	-40.371	
589.400	-23.087	
589.500	-33.542	
589.600	-27.947	
589.700	-36.267	
589.800	-25.974	
589.900	-32.304	
590.000	-26.836	
590.100	-27.085	
590.200	-33.588	
590.300	-39.378	
590.400	-43.917	
590.500	-28.291	
590.600	-36.888	
590.700	-10.860	
590.800	-37.648	
590.900	-26.628	
591.000	-28.965	
591.100	-29.652	
591.200	-22.220	
591.300	-31.365	
591.400	-39.125	
591.500	-26.682	
591.600	-34.556	
591.700	-32.110	
591.800	-24.575	
591.900	-31.113	
592.000	-45.916	
592.100	-17.407	
592.200	-26.710	
592.300	-27.610	
592.400	-27.491	
592.500	-35.995	
592.600	-40.639	
592.700	-17.474	
592.800	-28.021	
592.900	-26.854	
593.000	-35.702	
593.100	-30.717	
593.200	-24.039	
593.300	-38.273	
593.400	-20.229	
593.500	-32.372	
593.600	-29.821	
593.700	-41.036	
593.800	-15.231	
593.900	-36.575	
594.000	-27.403	
594.100	-32.881	
594.200	-36.822	
594.300	-36.308	
594.400	-24.446	
594.500	-31.777	
594.600	-18.226	
594.700	-35.899	
594.800	-43.099	
594.900	-25.145	
595.000	-36.121	
595.100	-17.483	
595.200	-20.652	
595.300	-42.970	
595.400	-25.208	
595.500	-34.165	
595.600	-19.905	
595.700	-23.307	
595.800	-13.604	
595.900	-42.309	
596.000	-18.298	
596.100	-32.829	
596.200	-29.582	
596.300	-35.409	
596.400	-9.117	
596.500	-29.363	
596.600	-31.183	
596.700	-16.803	
596.800	-26.302	
596.900	-30.388	
597.000	-18.122	
597.100	-36.336	
597.200	-30.564	
597.300	-37.199	
597.400	-7.377	
597.500	-25.540	
597.600	-28.680	
597.700	-34.193	
597.800	-20.860	
597.900	-26.444	
598.000	-28.035	
598.100	-14.358	
598.200	-23.176	
598.300	-36.532	
598.400	-29.381	
598.500	-14.661	
598.600	-34.328	
598.700	-12.690	
598.800	-27.236	
598.900	-35.568	
599.000	-22.274	
599.100	-32.643	
599.200	-24.237	
599.300	-32.785	
599.400	-21.228	
599.500	-35.311	
599.600	-29.395	
599.700	-19.879	
599.800	-29.533	
599.900	-29.573	
600.000	-33.194	
600.100	-27.742	
600.200	-35.868	
600.300	-24.980	
600.400	-11.431	
600.500	-35.068	
600.600	-28.678	
600.700	-23.861	
600.800	-44.040	
600.900	-21.880	
601.000	-9.356	
601.100	-36.586	
601.200	-34.284	
601.300	-20.202	
601.400	-28.530	
601.500	-25.535	
601.600	-33.891	
601.700	-25.563	
601.800	-24.159	
601.900	-42.727	
602.000	-27.360	
602.100	-25.461	
602.200	-28.595	
602.300	-28.124	
602.400	-19.852	
602.500	-24.115	
602.600	-21.882	
602.700	-23.489	
602.800	-27.862	
602.900	-28.175	
603.000	-33.261	
603.100	-20.436	
603.200	-18.709	
603.300	-21.084	
603.400	-23.408	
603.500	-34.947	
603.600	-11.610	
603.700	-29.825	
603.800	-20.706	
603.900	-6.381	
604.000	-16.392	
604.100	-24.643	
604.200	-24.750	
604.300	-23.227	
604.400	-24.460	
604.500	-26.573	
604.600	-26.184	
604.700	-25.662	
604.800	-19.254	
604.900	-25.467	
605.000	-15.894	
605.100	-25.650	
605.200	-25.378	
605.300	-29.379	
605.400	-20.013	
605.500	-15.471	
605.600	-31.671	
605.700	-33.951	
605.800	-29.366	
605.900	-22.465	
606.000	-25.154	
606.100	-33.712	
606.200	-20.472	
606.300	-25.549	
606.400	-19.983	
606.500	-24.182	
606.600	-27.648	
606.700	-24.642	
606.800	-25.067	
606.900	-41.379	
607.000	-8.340	
607.100	-25.929	
607.200	-19.180	
607.300	-39.970	
607.400	-21.076	
607.500	-11.788	
607.600	-19.542	
607.700	-23.467	
607.800	-46.288	
607.900	-22.168	
608.000	-11.288	
608.100	-16.818	
608.200	-28.111	
608.300	-24.132	
608.400	-37.032	
608.500	-22.456	
608.600	-19.187	
608.700	-24.158	
608.800	-19.681	
608.900	-33.580	
609.000	-33.169	
609.100	-12.651	
609.200	-40.356	
609.300	-16.690	
609.400	-16.794	
609.500	-12.493	
609.600	-0.146	
609.700	-40.964	
609.800	-14.457	
609.900	-12.596	
610.000	-20.988	
610.100	-27.229	
610.200	-28.786	
610.300	-33.601	
610.400	-2.597	
610.500	-17.523	
610.600	-29.619	
610.700	-33.127	
610.800	-25.993	
610.900	-20.033	
611.000	-4.668	
611.100	-34.812	
611.200	-14.403	
611.300	-19.835	
611.400	-24.126	
611.500	-20.321	
611.600	-25.733	
611.700	-27.581	
611.800	-24.724	
611.900	-20.497	
612.000	-33.676	
612.100	-18.313	
612.200	-22.381	
612.300	-37.342	
612.400	-33.729	
612.500	-12.234	
612.600	-29.491	
612.700	-20.013	
612.800	-30.897	
612.900	-36.853	
613.000	-18.407	
613.100	-12.244	
613.200	-23.300	
613.300	-20.288	
613.400	-28.906	
613.500	-19.949	
613.600	-24.967	
613.700	-17.108	
613.800	-16.400	
613.900	-40.405	
614.000	-12.142	
614.100	-34.441	
614.200	-5.547	
614.300	-22.469	
614.400	-17.653	
614.500	-28.665	
614.600	-22.848	
614.700	-12.250	
614.800	-28.905	
614.900	-18.551	
615.000	-26.977	
615.100	-23.579	
615.200	-29.065	
615.300	-17.832	
615.400	-20.039	
615.500	-23.708	
615.600	-20.193	
615.700	-25.899	
615.800	-28.705	
615.900	-5.042	
616.000	-28.877	
616.100	-19.413	
616.200	-31.662	
616.300	-25.539	
616.400	-28.245	
616.500	-21.537	
616.600	-23.897	
616.700	-27.120	
616.800	-14.859	
616.900	-26.953	
617.000	-19.880	
617.100	-18.219	
617.200	-22.032	
617.300	-32.003	
617.400	-7.101	
617.500	-27.352	
617.600	-21.416	
617.700	-16.542	
617.800	-28.751	
617.900	-16.068	
618.000	-23.528	
618.100	-10.034	
618.200	-10.702	
618.300	-41.020	
618.400	-0.406	
618.500	-27.696	
618.600	-15.960	
618.700	-34.874	
618.800	-21.828	
618.900	-29.760	
619.000	-20.248	
619.100	-26.220	
619.200	-29.323	
619.300	-21.648	
619.400	-32.349	
619.500	-16.538	
619.600	-17.244	
619.700	-19.695	
619.800	-20.495	
619.900	-13.136	
620.000	-12.949	
620.100	-23.161	
620.200	-31.091	
620.300	-12.743	
620.400	-35.582	
620.500	-23.353	
620.600	-7.858	
620.700	-24.319	
620.800	-13.834	
620.900	-31.341	
621.000	-24.534	
621.100	-29.337	
621.200	-15.255	
621.300	-21.946	
621.400	-28.334	
621.500	-19.253	
621.600	-33.057	
621.700	-13.568	
621.800	-12.701	
621.900	-17.807	
622.000	-29.806	
622.100	-22.612	
622.200	-13.250	
622.300	-5.223	
622.400	-23.930	
622.500	-25.012	
622.600	-22.987	
622.700	-20.894	
622.800	-20.858	
622.900	-9.418	
623.000	-27.703	
623.100	-13.580	
623.200	-27.396	
623.300	-21.829	
623.400	-22.865	
623.500	-14.823	
623.600	-12.241	
623.700	-30.894	
623.800	-25.191	
623.900	-14.853	
624.000	-30.898	
624.100	-31.814	
624.200	-7.382	
624.300	-12.084	
624.400	-26.901	
624.500	-25.508	
624.600	-33.999	
624.700	-21.045	
624.800	-15.131	
624.900	-30.350	
625.000	-10.475	
625.100	-26.682	
625.200	-18.765	
625.300	-30.886	
625.400	-15.051	
625.500	-1.318	
625.600	-25.020	
625.700	-20.190	
625.800	-19.020	
625.900	-34.610	
626.000	-6.676	
626.100	-7.672	
626.200	-35.966	
626.300	-23.684	
626.400	-15.978	
626.500	-14.324	
626.600	-37.891	
626.700	-11.908	
626.800	-27.824	
626.900	-24.561	
627.000	-18.142	
627.100	-22.465	
627.200	-33.497	
627.300	-11.096	
627.400	-13.934	
627.500	-25.915	
627.600	-21.871	
627.700	-24.091	
627.800	-21.705	
627.900	-3.748	
628.000	-15.823	
628.100	-33.066	
628.200	-18.386	
628.300	-19.881	
628.400	-41.302	
628.500	-22.515	
628.600	-5.978	
628.700	-36.482	
628.800	-5.933	
628.900	-21.400	
629.000	-20.519	
629.100	-16.091	
629.200	-18.923	
629.300	-35.148	
629.400	-14.011	
629.500	-33.395	
629.600	-14.093	
629.700	-13.154	
629.800	-24.664	
629.900	-9.276	
630.000	-18.328	
630.100	0.938	
630.200	-0.160	
630.300	27.418	
630.400	22.873	
630.500	15.012	
630.600	23.851	
630.700	26.865	
630.800	25.692	
630.900	33.048	
631.000	36.253	
631.100	33.063	
631.200	41.772	
631.300	33.112	
631.400	34.637	
631.500	32.861	
631.600	50.434	
631.700	28.022	
631.800	39.720	
631.900	39.332	
632.000	45.472	
632.100	31.457	
632.200	40.117	
632.300	32.801	
632.400	39.390	
632.500	46.062	
632.600	41.784	
632.700	35.234	
632.800	43.461	
632.900	26.088	
633.000	45.579	
633.100	53.129	
633.200	28.254	
633.300	53.331	
633.400	34.770	
633.500	34.948	
633.600	35.890	
633.700	35.138	
633.800	31.176	
633.900	31.401	
634.000	23.779	
634.100	31.890	
634.200	38.994	
634.300	48.900	
634.400	34.455	
634.500	43.522	
634.600	39.602	
634.700	35.817	
634.800	47.961	
634.900	43.844	
635.000	29.303	
635.100	38.229	
635.200	39.728	
635.300	34.486	
635.400	35.318	
635.500	20.312	
635.600	50.219	
635.700	38.240	
635.800	27.874	
635.900	29.831	
636.000	47.094	
636.100	52.183	
636.200	27.959	
636.300	27.273	
636.400	42.574	
636.500	44.419	
636.600	42.622	
636.700	38.309	
636.800	33.336	
636.900	59.196	
637.000	44.869	
637.100	42.327	
637.200	51.922	
637.300	54.239	
637.400	50.304	
637.500	33.213	
637.600	52.236	
637.700	56.878	
637.800	69.280	
637.900	68.552	
638.000	53.393	
638.100	42.483	
638.200	51.869	
638.300	70.510	
638.400	68.965	
638.500	50.687	
638.600	64.991	
638.700	53.002	
638.800	51.642	
638.900	62.001	
639.000	57.441	
639.100	66.150	
639.200	54.507	
639.300	67.539	
639.400	68.688	
639.500	57.458	
639.600	53.346	
639.700	64.566	
639.800	67.278	
639.900	52.500	
640.000	61.853	
640.100	60.765	
640.200	61.559	
640.300	53.992	
640.400	52.973	
640.500	61.155	
640.600	65.726	
640.700	45.472	
640.800	53.690	
640.900	68.909	
641.000	41.689	
641.100	66.179	
641.200	73.873	
641.300	69.228	
641.400	56.631	
641.500	62.892	
641.600	70.950	
641.700	60.394	
641.800	60.813	
641.900	69.513	
642.000	80.500	
642.100	59.913	
642.200	58.094	
642.300	68.386	
642.400	58.969	
642.500	57.728	
642.600	70.432	
642.700	60.777	
642.800	83.065	
642.900	61.391	
643.000	56.827	
643.100	80.227	
643.200	64.756	
643.300	63.415	
643.400	65.969	
643.500	66.994	
643.600	50.702	
643.700	83.237	
643.800	67.733	
643.900	59.810	
644.000	64.092	
644.100	65.009	
644.200	71.530	
644.300	72.429	
644.400	55.561	
644.500	63.938	
644.600	73.070	
644.700	64.848	
644.800	72.420	
644.900	68.435	
645.000	59.353	
645.100	58.500	
645.200	59.930	
645.300	64.635	
645.400	73.031	
645.500	71.816	
645.600	56.236	
645.700	58.510	
645.800	54.864	
645.900	66.585	
646.000	78.875	
646.100	67.705	
646.200	66.070	
646.300	49.728	
646.400	64.927	
646.500	63.729	
646.600	73.181	
646.700	54.352	
646.800	73.581	
646.900	59.217	
647.000	60.541	
647.100	72.639	
647.200	75.124	
647.300	59.984	
647.400	70.664	
647.500	62.346	
647.600	59.312	
647.700	64.339	
647.800	62.393	
647.900	54.232	
648.000	73.461	
648.100	64.537	
648.200	69.888	
648.300	60.322	
648.400	74.730	
648.500	60.657	
648.600	78.349	
648.700	57.731	
648.800	58.926	
648.900	62.064	
649.000	67.716	
649.100	62.317	
649.200	54.729	
649.300	74.067	
649.400	58.982	
649.500	65.577	
649.600	59.028	
649.700	73.898	
649.800	65.439	
649.900	52.404	
650.000	66.912	
650.100	58.957	
650.200	63.309	
650.300	71.459	
650.400	63.072	
650.500	62.114	
650.600	60.066	
650.700	59.114	
650.800	61.800	
650.900	54.955	
651.000	69.879	
651.100	79.047	
651.200	62.904	
651.300	57.384	
651.400	69.130	
651.500	48.517	
651.600	69.630	
651.700	60.338	
651.800	60.830	
651.900	62.075	
652.000	46.380	
652.100	76.056	
652.200	51.104	
652.300	56.702	
652.400	74.658	
652.500	64.919	
652.600	59.648	
652.700	72.600	
652.800	68.143	
652.900	56.676	
653.000	46.387	
653.100	67.181	
653.200	50.885	
653.300	70.128	
653.400	63.174	
653.500	72.590	
653.600	57.179	
653.700	64.244	
653.800	69.002	
653.900	70.370	
654.000	65.689	
654.100	67.401	
654.200	69.558	
654.300	64.317	
654.400	56.621	
654.500	64.920	
654.600	66.133	
654.700	57.210	
654.800	56.981	
654.900	47.304	
655.000	62.398	
655.100	73.193	
655.200	60.881	
655.300	62.479	
655.400	51.236	
655.500	61.761	
655.600	68.562	
655.700	55.652	
655.800	63.121	
655.900	51.106	
656.000	64.952	
656.100	62.772	
656.200	66.567	
656.300	53.187	
656.400	59.797	
656.500	67.597	
656.600	65.123	
656.700	69.064	
656.800	58.952	
656.900	57.390	
657.000	57.718	
657.100	63.613	
657.200	66.450	
657.300	43.192	
657.400	69.599	
657.500	58.919	
657.600	71.175	
657.700	66.076	
657.800	45.462	
657.900	57.592	
658.000	74.566	
658.100	79.400	
658.200	53.341	
658.300	58.457	
658.400	66.750	
658.500	55.876	
658.600	68.807	
658.700	54.891	
658.800	70.530	
658.900	41.694	
659.000	68.218	
659.100	65.682	
659.200	61.078	
659.300	55.950	
659.400	47.505	
659.500	63.750	
659.600	54.672	
659.700	70.071	
659.800	64.442	
659.900	56.697	
660.000	58.338	
660.100	81.239	
660.200	65.624	
660.300	64.639	
660.400	59.126	
660.500	60.916	
660.600	59.821	
660.700	56.507	
660.800	66.873	
660.900	72.840	
661.000	49.285	
661.100	64.812	
661.200	65.203	
661.300	60.425	
661.400	59.154	
661.500	55.581	
661.600	64.539	
661.700	59.472	
661.800	55.602	
661.900	73.070	
662.000	59.163	
662.100	37.148	
662.200	77.192	
662.300	50.385	
662.400	72.078	
662.500	61.527	
662.600	63.154	
662.700	75.244	
662.800	57.616	
662.900	66.717	
663.000	63.205	
663.100	55.475	
663.200	49.507	
663.300	64.118	
663.400	69.798	
663.500	47.110	
663.600	53.319	
663.700	49.020	
663.800	63.083	
663.900	50.121	
664.000	60.103	
664.100	56.091	
664.200	65.292	
664.300	55.641	
664.400	60.866	
664.500	53.795	
664.600	65.965	
664.700	48.484	
664.800	47.809	
664.900	72.282	
665.000	67.539	
665.100	48.588	
665.200	65.557	
665.300	57.552	
665.400	70.843	
665.500	62.684	
665.600	59.387	
665.700	47.098	
665.800	52.901	
665.900	73.665	
666.000	57.002	
666.100	55.919	
666.200	48.673	
666.300	70.717	
666.400	61.429	
666.500	60.457	
666.600	65.928	
666.700	48.030	
666.800	48.077	
666.900	59.259	
667.000	46.410	
667.100	64.887	
667.200	57.575	
667.300	64.939	
667.400	55.446	
667.500	57.447	
667.600	53.979	
667.700	64.021	
667.800	65.189	
667.900	64.298	
668.000	51.069	
668.100	58.111	
668.200	63.192	
668.300	46.655	
668.400	62.729	
668.500	53.479	
668.600	54.391	
668.700	55.095	
668.800	67.774	
668.900	65.927	
669.000	51.336	
669.100	79.551	
669.200	62.719	
669.300	67.279	
669.400	44.291	
669.500	58.349	
669.600	51.576	
669.700	51.807	
669.800	53.040	
669.900	60.797	
670.000	47.216	
670.100	64.261	
670.200	57.923	
670.300	63.193	
670.400	51.844	
670.500	64.083	
670.600	47.117	
670.700	57.652	
670.800	74.540	
670.900	51.615	
671.000	64.078	
671.100	58.484	
671.200	49.146	
671.300	56.816	
671.400	56.407	
671.500	54.980	
671.600	70.740	
671.700	59.697	
671.800	55.125	
671.900	52.993	
672.000	62.124	
672.100	56.813	
672.200	57.250	
672.300	50.435	
672.400	76.653	
672.500	54.204	
672.600	50.304	
672.700	60.934	
672.800	75.359	
672.900	57.533	
673.000	61.712	
673.100	60.399	
673.200	55.266	
673.300	51.851	
673.400	47.801	
673.500	58.077	
673.600	60.665	
673.700	62.142	
673.800	57.827	
673.900	56.821	
674.000	61.464	
674.100	53.505	
674.200	55.942	
674.300	72.889	
674.400	66.079	
674.500	51.644	
674.600	62.360	
674.700	65.555	
674.800	59.783	
674.900	52.931	
675.000	59.561	
675.100	53.614	
675.200	60.436	
675.300	54.943	
675.400	47.446	
675.500	63.187	
675.600	65.642	
675.700	44.462	
675.800	52.063	
675.900	62.787	
676.000	74.638	
676.100	49.735	
676.200	59.164	
676.300	60.889	
676.400	56.621	
676.500	61.180	
676.600	57.515	
676.700	65.827	
676.800	62.811	
676.900	60.002	
677.000	46.570	
677.100	54.470	
677.200	52.799	
677.300	50.117	
677.400	59.006	
677.500	64.269	
677.600	42.812	
677.700	61.181	
677.800	65.085	
677.900	38.703	
678.000	55.365	
678.100	69.828	
678.200	68.504	
678.300	58.966	
678.400	50.996	
678.500	58.180	
678.600	49.756	
678.700	70.751	
678.800	65.381	
678.900	53.837	
679.000	43.234	
679.100	53.045	
679.200	64.991	
679.300	54.438	
679.400	65.788	
679.500	39.211	
679.600	66.011	
679.700	44.567	
679.800	67.279	
679.900	57.137	
680.000	56.283	
680.100	56.783	
680.200	55.736	
680.300	62.023	
680.400	55.588	
680.500	66.086	
680.600	53.923	
680.700	65.315	
680.800	55.465	
680.900	55.282	
681.000	63.395	
681.100	62.232	
681.200	67.576	
681.300	61.436	
681.400	53.112	
681.500	60.817	
681.600	63.878	
681.700	52.296	
681.800	55.339	
681.900	63.718	
682.000	56.846	
682.100	69.599	
682.200	57.526	
682.300	57.723	
682.400	57.160	
682.500	52.247	
682.600	51.342	
682.700	62.711	
682.800	52.046	
682.900	60.138	
683.000	72.384	
683.100	59.862	
683.200	42.179	
683.300	72.528	
683.400	51.438	
683.500	73.078	
683.600	71.349	
683.700	54.351	
683.800	48.022	
683.900	55.001	
684.000	63.967	
684.100	69.073	
684.200	54.185	
684.300	54.087	
684.400	70.996	
684.500	58.454	
684.600	59.677	
684.700	49.788	
684.800	59.907	
684.900	59.145	
685.000	56.956	
685.100	49.755	
685.200	64.027	
685.300	64.820	
685.400	60.801	
685.500	60.648	
685.600	59.920	
685.700	57.703	
685.800	71.525	
685.900	65.376	
686.000	53.551	
686.100	61.813	
686.200	45.746	
686.300	52.015	
686.400	61.617	
686.500	59.600	
686.600	52.581	
686.700	55.600	
686.800	64.765	
686.900	61.417	
687.000	67.927	
687.100	65.385	
687.200	53.342	
687.300	53.297	
687.400	70.812	
687.500	65.195	
687.600	46.402	
687.700	70.821	
687.800	41.920	
687.900	67.314	
688.000	50.351	
688.100	50.939	
688.200	55.241	
688.300	58.775	
688.400	60.082	
688.500	63.133	
688.600	45.342	
688.700	73.346	
688.800	76.882	
688.900	62.507	
689.000	46.390	
689.100	72.290	
689.200	72.313	
689.300	69.276	
689.400	57.132	
689.500	59.629	
689.600	70.076	
689.700	44.952	
689.800	52.386	
689.900	63.675	
690.000	55.046	
690.100	49.756	
690.200	47.101	
690.300	50.142	
690.400	56.376	
690.500	55.667	
690.600	51.427	
690.700	46.968	
690.800	37.977	
690.900	31.656	
691.000	34.598	
691.100	19.521	
691.200	20.209	
691.300	22.009	
691.400	46.381	
691.500	7.048	
691.600	31.871	
691.700	8.079	
691.800	16.531	
691.900	12.812	
692.000	18.433	
692.100	6.754	
692.200	12.731	
692.300	-5.825	
692.400	10.016	
692.500	15.954	
692.600	-2.812	
692.700	3.364	
692.800	-0.963	
692.900	-10.348	
693.000	-9.710	
693.100	-8.979	
693.200	-10.755	
693.300	-15.749	
693.400	-20.765	
693.500	-21.010	
693.600	-28.528	
693.700	-23.074	
693.800	-25.940	
693.900	-19.238	
694.000	-30.757	
694.100	-21.407	
694.200	-36.523	
694.300	-35.474	
694.400	-24.040	
694.500	-13.064	
694.600	-34.206	
694.700	-44.061	
694.800	-31.985	
694.900	-48.604	
695.000	-30.335	
695.100	-41.491	
695.200	-31.891	
695.300	-50.601	
695.400	-37.450	
695.500	-43.528	
695.600	-29.834	
695.700	-32.104	
695.800	-31.437	
695.900	-33.068	
696.000	-30.802	
696.100	-28.626	
696.200	-40.798	
696.300	-39.170	
696.400	-40.380	
696.500	-30.299	
696.600	-28.981	
696.700	-38.045	
696.800	-39.783	
696.900	-32.861	
697.000	-35.887	
697.100	-30.147	
697.200	-32.671	
697.300	-29.956	
697.400	-44.036	
697.500	-33.721	
697.600	-27.904	
697.700	-38.843	
697.800	-40.322	
697.900	-19.623	
698.000	-26.036	
698.100	-30.735	
698.200	-32.273	
698.300	-39.292	
698.400	-33.921	
698.500	-37.043	
698.600	-45.999	
698.700	-41.911	
698.800	-22.163	
698.900	-33.536	
699.000	-24.755	
699.100	-22.307	
699.200	-30.784	
699.300	-43.678	
699.400	-46.488	
699.500	-22.666	
699.600	-19.775	
699.700	-20.276	
699.800	-38.787	
699.900	-44.743	
700.000	-30.014	
700.100	-27.551	
700.200	-29.547	
700.300	-23.749	
700.400	-44.197	
700.500	-39.451	
700.600	-42.018	
700.700	-23.888	
700.800	-35.842	
700.900	-31.385	
701.000	-36.888	
701.100	-38.152	
701.200	-45.387	
701.300	-43.137	
701.400	-22.387	
701.500	-25.723	
701.600	-34.837	
701.700	-40.642	
701.800	-38.681	
701.900	-35.986	
702.000	-35.181	
702.100	-33.814	
702.200	-40.141	
702.300	-48.995	
702.400	-28.594	
702.500	-23.763	
702.600	-29.020	
702.700	-35.959	
702.800	-31.673	
702.900	-34.687	
703.000	-43.832	
703.100	-27.418	
703.200	-43.753	
703.300	-37.298	
703.400	-37.090	
703.500	-34.772	
703.600	-42.108	
703.700	-29.784	
703.800	-28.458	
703.900	-52.311	
704.000	-36.920	
704.100	-31.201	
704.200	-38.163	
704.300	-29.819	
704.400	-43.268	
704.500	-46.743	
704.600	-25.987	
704.700	-45.729	
704.800	-33.075	
704.900	-20.109	
705.000	-36.298	
705.100	-32.980	
705.200	-40.119	
705.300	-40.675	
705.400	-42.556	
705.500	-17.312	
705.600	-46.533	
705.700	-39.375	
705.800	-31.725	
705.900	-31.623	
706.000	-32.929	
706.100	-38.891	
706.200	-41.744	
706.300	-49.885	
706.400	-33.520	
706.500	-23.007	
706.600	-38.437	
706.700	-36.570	
706.800	-30.060	
706.900	-51.686	
707.000	-28.823	
707.100	-35.985	
707.200	-42.612	
707.300	-38.538	
707.400	-39.143	
707.500	-48.838	
707.600	-34.169	
707.700	-25.567	
707.800	-34.845	
707.900	-37.592	
708.000	-34.810	
708.100	-34.396	
708.200	-45.879	
708.300	-33.294	
708.400	-27.156	
708.500	-28.441	
708.600	-44.409	
708.700	-55.613	
708.800	-39.345	
708.900	-21.766	
709.000	-42.779	
709.100	-38.194	
709.200	-43.730	
709.300	-22.211	
709.400	-40.830	
709.500	-38.248	
709.600	-44.931	
709.700	-37.961	
709.800	-36.301	
709.900	-39.583	
710.000	-43.971	
710.100	-48.064	
710.200	-32.872	
710.300	-41.566	
710.400	-50.412	
710.500	-42.651	
710.600	-28.921	
710.700	-35.611	
710.800	-60.305	
710.900	-53.359	
711.000	-33.078	
711.100	-30.126	
711.200	-33.691	
711.300	-42.662	
711.400	-38.338	
711.500	-46.216	
711.600	-41.722	
711.700	-37.217	
711.800	-25.526	
711.900	-61.064	
712.000	-22.232	
712.100	-41.006	
712.200	-42.886	
712.300	-41.747	
712.400	-33.854	
712.500	-50.784	
712.600	-32.768	
712.700	-32.331	
712.800	-44.342	
712.900	-46.163	
713.000	-32.760	
713.100	-44.172	
713.200	-37.262	
713.300	-35.035	
713.400	-43.294	
713.500	-42.374	
713.600	-44.123	
713.700	-34.268	
713.800	-40.996	
713.900	-44.115	
714.000	-43.141	
714.100	-22.737	
714.200	-44.896	
714.300	-37.327	
714.400	-39.282	
714.500	-39.820	
714.600	-37.094	
714.700	-50.371	
714.800	-38.216	
714.900	-35.330	
715.000	-41.177	
715.100	-42.640	
715.200	-27.404	
715.300	-34.995	
715.400	-44.024	
715.500	-48.299	
715.600	-50.939	
715.700	-29.914	
715.800	-49.104	
715.900	-26.906	
716.000	-38.236	
716.100	-45.859	
716.200	-43.580	
716.300	-46.940	
716.400	-24.101	
716.500	-41.027	
716.600	-49.059	
716.700	-35.783	
716.800	-23.203	
716.900	-35.841	
717.000	-66.573	
717.100	-30.860	
717.200	-43.940	
717.300	-36.063	
717.400	-45.709	
717.500	-53.989	
717.600	-44.811	
717.700	-35.165	
717.800	-49.171	
717.900	-48.773	
718.000	-36.936	
718.100	-40.173	
718.200	-24.515	
718.300	-44.775	
718.400	-45.578	
718.500	-46.605	
718.600	-50.685	
718.700	-44.221	
718.800	-57.526	
718.900	-48.886	
719.000	-45.919	
719.100	-41.727	
719.200	-44.175	
719.300	-25.930	
719.400	-28.507	
719.500	-34.733	
719.600	-37.476	
719.700	-36.365	
719.800	-48.910	
719.900	-35.217	
720.000	-42.941	
720.100	-41.345	
720.200	-47.348	
720.300	-44.198	
720.400	-37.208	
720.500	-32.939	
720.600	-33.564	
720.700	-38.629	
720.800	-29.234	
720.900	-51.520	
721.000	-35.394	
721.100	-46.522	
721.200	-24.211	
721.300	-42.211	
721.400	-43.819	
721.500	-32.011	
721.600	-42.031	
721.700	-46.414	
721.800	-37.597	
721.900	-40.756	
722.000	-33.336	
722.100	-42.938	
722.200	-40.841	
722.300	-20.510	
722.400	-43.808	
722.500	-20.758	
722.600	-45.589	
722.700	-40.126	
722.800	-43.233	
722.900	-66.021	
723.000	-45.165	
723.100	-41.536	
723.200	-34.614	
723.300	-48.354	
723.400	-43.002	
723.500	-34.325	
723.600	-51.840	
723.700	-31.910	
723.800	-38.100	
723.900	-46.459	
724.000	-32.678	
724.100	-45.102	
724.200	-20.294	
724.300	-25.535	
724.400	-36.768	
724.500	-31.344	
724.600	-37.065	
724.700	-44.435	
724.800	-48.027	
724.900	-27.568	
725.000	-44.084	
725.100	-40.396	
725.200	-29.657	
725.300	-46.142	
725.400	-27.481	
725.500	-56.162	
725.600	-36.492	
725.700	-39.630	
725.800	-39.869	
725.900	-46.794	
726.000	-36.793	
726.100	-39.279	
726.200	-43.344	
726.300	-49.809	
726.400	-43.243	
726.500	-25.413	
726.600	-48.929	
726.700	-41.768	
726.800	-31.795	
726.900	-48.088	
727.000	-34.581	
727.100	-30.528	
727.200	-45.054	
727.300	-24.713	
727.400	-31.927	
727.500	-39.096	
727.600	-45.066	
727.700	-49.028	
727.800	-18.041	
727.900	-32.469	
728.000	-38.148	
728.100	-33.765	
728.200	-42.167	
728.300	-25.569	
728.400	-38.386	
728.500	-41.165	
728.600	-46.038	
728.700	-45.766	
728.800	-33.517	
728.900	-41.205	
729.000	-40.814	
729.100	-45.215	
729.200	-48.050	
729.300	-25.021	
729.400	-25.328	
729.500	-32.764	
729.600	-47.269	
729.700	-28.706	
729.800	-40.566	
729.900	-39.606	
730.000	-30.711	
730.100	-36.340	
730.200	-34.197	
730.300	-56.826	
730.400	-24.453	
730.500	-37.295	
730.600	-35.160	
730.700	-36.583	
730.800	-37.894	
730.900	-56.051	
731.000	-23.944	
731.100	-25.927	
731.200	-42.217	
731.300	-44.864	
731.400	-40.570	
731.500	-26.840	
731.600	-46.350	
731.700	-36.729	
731.800	-40.178	
731.900	-31.296	
732.000	-37.708	
732.100	-18.698	
732.200	-33.379	
732.300	-32.590	
732.400	-25.435	
732.500	-39.784	
732.600	-29.358	
732.700	-32.109	
732.800	-30.378	
732.900	-40.067	
733.000	-39.785	
733.100	-44.541	
733.200	-34.282	
733.300	-38.404	
733.400	-11.618	
733.500	-32.466	
733.600	-24.155	
733.700	-27.240	
733.800	-25.762	
733.900	-41.517	
734.000	-36.057	
734.100	-38.163	
734.200	-36.321	
734.300	-33.763	
734.400	-35.582	
734.500	-38.528	
734.600	-29.863	
734.700	-26.891	
734.800	-40.562	
734.900	-34.337	
735.000	-37.718	
735.100	-32.890	
735.200	-38.949	
735.300	-35.338	
735.400	-28.626	
735.500	-42.618	
735.600	-38.876	
735.700	-36.781	
735.800	-25.887	
735.900	-32.513	
736.000	-38.679	
736.100	-30.904	
736.200	-28.994	
736.300	-22.104	
736.400	-31.868	
736.500	-30.023	
736.600	-40.668	
736.700	-25.662	
736.800	-38.374	
736.900	-30.665	
737.000	-34.662	
737.100	-32.297	
737.200	-31.164	
737.300	-49.621	
737.400	-31.937	
737.500	-24.453	
737.600	-30.623	
737.700	-47.770	
737.800	-33.395	
737.900	-25.249	
738.000	-34.373	
738.100	-33.453	
738.200	-34.507	
738.300	-35.120	
738.400	-38.982	
738.500	-14.467	
738.600	-45.614	
738.700	-21.044	
738.800	-34.173	
738.900	-42.293	
739.000	-32.049	
739.100	-40.798	
739.200	-35.488	
739.300	-38.833	
739.400	-34.651	
739.500	-26.904	
739.600	-23.854	
739.700	-31.126	
739.800	-29.638	
739.900	-38.254	
740.000	-36.279	
740.100	-36.193	
740.200	-33.035	
740.300	-22.067	
740.400	-38.622	
740.500	-30.325	
740.600	-16.499	
740.700	-46.485	
740.800	-17.215	
740.900	-28.041	
741.000	-32.990	
741.100	-36.712	
741.200	-18.069	
741.300	-29.122	
741.400	-28.485	
741.500	-25.263	
741.600	-25.341	
741.700	-24.972	
741.800	-39.016	
741.900	-32.157	
742.000	-32.592	
742.100	-32.854	
742.200	-19.755	
742.300	-31.368	
742.400	-34.992	
742.500	-47.372	
742.600	-23.909	
742.700	-26.688	
742.800	-46.165	
742.900	-13.948	
743.000	-28.443	
743.100	-30.391	
743.200	-31.217	
743.300	-39.768	
743.400	-29.766	
743.500	-26.470	
743.600	-16.134	
743.700	-39.192	
743.800	-17.337	
743.900	-11.408	
744.000	-23.790	
744.100	-44.496	
744.200	-24.571	
744.300	-17.922	
744.400	-28.504	
744.500	-21.292	
744.600	-24.649	
744.700	-25.058	
744.800	-34.264	
744.900	-22.588	
745.000	-29.364	
745.100	-44.360	
745.200	-19.157	
745.300	-32.185	
745.400	-26.792	
745.500	-34.778	
745.600	-20.643	
745.700	-39.320	
745.800	-11.778	
745.900	-27.575	
746.000	-31.280	
746.100	-20.627	
746.200	-25.453	
746.300	-31.649	
746.400	-32.785	
746.500	-43.882	
746.600	-7.000	
746.700	-35.686	
746.800	-38.335	
746.900	-23.869	
747.000	-44.998	
747.100	-23.553	
747.200	-26.388	
747.300	-24.197	
747.400	-36.802	
747.500	-29.053	
747.600	-32.940	
747.700	-27.503	
747.800	-23.073	
747.900	-33.165	
748.000	-25.077	
748.100	-37.570	
748.200	-36.094	
748.300	-28.642	
748.400	-33.182	
748.500	-36.119	
748.600	-18.189	
748.700	-39.837	
748.800	-36.755	
748.900	-23.498	
749.000	-25.275	
749.100	-31.228	
749.200	-30.554	
749.300	-24.126	
749.400	-30.390	
749.500	-20.638	
749.600	-34.760	
749.700	-24.556	
749.800	-20.498	
749.900	-21.476	
750.000	-27.340	
750.100	-24.618	
750.200	-27.068	
750.300	-34.775	
750.400	-28.324	
750.500	-28.432	
750.600	-33.012	
750.700	-22.074	
750.800	-30.391	
750.900	-29.597	
751.000	-11.227	
751.100	-35.798	
751.200	-34.513	
751.300	-24.446	
751.400	-34.734	
751.500	-29.076	
751.600	-20.811	
751.700	-29.090	
751.800	-28.340	
751.900	-22.474	
752.000	-41.403	
752.100	-29.313	
752.200	-21.559	
752.300	-22.274	
752.400	-21.701	
752.500	-41.939	
752.600	-25.596	
752.700	-19.544	
752.800	-31.894	
752.900	-39.909	
753.000	-33.227	
753.100	-8.289	
753.200	-12.027	
753.300	-22.834	
753.400	-20.616	
753.500	-22.605	
753.600	-30.384	
753.700	-1.430	
753.800	-31.019	
753.900	-26.189	
754.000	-22.663	
754.100	-23.421	
754.200	-34.656	
754.300	-16.412	
754.400	-39.399	
754.500	-19.777	
754.600	-12.878	
754.700	-22.777	
754.800	-28.662	
754.900	-18.635	
755.000	-43.466	
755.100	-28.385	
755.200	-19.097	
755.300	-15.474	
755.400	-25.272	
755.500	-26.133	
755.600	-24.607	
755.700	-39.789	
755.800	-26.865	
755.900	-12.223	
756.000	-2.575	
756.100	-42.856	
756.200	-29.345	
756.300	-35.749	
756.400	-19.885	
756.500	-25.237	
756.600	-17.083	
756.700	-49.907	
756.800	-16.678	
756.900	-30.971	
757.000	-14.586	
757.100	-26.888	
757.200	-18.319	
757.300	-26.000	
757.400	-23.279	
757.500	-22.979	
757.600	-28.390	
757.700	-18.065	
757.800	-19.809	
757.900	-27.335	
758.000	-20.307	
758.100	-30.301	
758.200	-36.268	
758.300	-12.477	
758.400	-36.841	
758.500	-22.823	
758.600	-13.639	
758.700	-31.834	
758.800	-28.038	
758.900	-27.452	
759.000	-32.177	
759.100	-23.373	
759.200	-25.290	
759.300	-3.186	
759.400	-24.466	
759.500	-23.502	
759.600	-32.488	
759.700	-18.420	
759.800	-29.563	
759.900	-28.218	
760.000	-34.735	
760.100	-26.211	
760.200	-15.729	
760.300	-27.655	
760.400	-18.131	
760.500	-40.312	
760.600	-3.345	
760.700	-13.121	
760.800	-30.940	
760.900	-36.573	
761.000	-23.649	
761.100	-29.081	
761.200	-21.212	
761.300	-18.060	
761.400	-20.105	
761.500	-25.417	
761.600	-30.281	
761.700	-31.130	
761.800	-44.574	
761.900	-17.603	
762.000	-15.809	
762.100	-13.463	
762.200	-29.462	
762.300	-10.791	
762.400	-30.851	
762.500	-15.299	
762.600	-29.387	
762.700	-21.353	
762.800	-14.583	
762.900	-31.246	
763.000	-27.611	
763.100	-37.919	
763.200	-26.001	
763.300	-30.248	
763.400	-22.036	
763.500	-21.066	
763.600	-27.933	
763.700	-20.058	
763.800	-14.749	
763.900	-20.673	
764.000	-26.047	
764.100	-30.456	
764.200	-31.321	
764.300	-27.939	
764.400	-29.191	
764.500	-21.596	
764.600	-10.024	
764.700	-19.548	
764.800	-28.077	
764.900	-8.355	
765.000	-32.492	
765.100	-25.382	
765.200	-2.915	
765.300	-30.837	
765.400	-18.710	
765.500	-19.528	
765.600	-6.767	
765.700	-36.642	
765.800	-22.219	
765.900	-27.464	
766.000	-33.463	
766.100	-31.802	
766.200	-21.172	
766.300	-9.744	
766.400	-23.612	
766.500	-12.492	
766.600	-21.254	
766.700	-24.381	
766.800	-18.682	
766.900	-25.773	
767.000	-16.129	
767.100	-16.448	
767.200	-23.703	
767.300	-27.418	
767.400	-26.019	
767.500	-17.565	
767.600	-20.888	
767.700	-16.054	
767.800	-10.634	
767.900	-18.272	
768.000	2.731	
768.100	-20.739	
768.200	-4.864	
768.300	-23.336	
768.400	-26.361	
768.500	-25.227	
768.600	-38.675	
768.700	-23.914	
768.800	-24.123	
768.900	-6.347	
769.000	-25.704	
769.100	-24.616	
769.200	-15.130	
769.300	-32.155	
769.400	-17.349	
769.500	-1.088	
769.600	-26.291	
769.700	-32.476	
769.800	-24.107	
769.900	-20.019	
770.000	-24.611	
770.100	-38.979	
770.200	-5.816	
770.300	-25.632	
770.400	-34.820	
770.500	-21.688	
770.600	-20.889	
770.700	-28.072	
770.800	-22.185	
770.900	-11.393	
771.000	-30.301	
771.100	-26.174	
771.200	-31.388	
771.300	-22.212	
771.400	-22.446	
771.500	-6.296	
771.600	-10.890	
771.700	-26.819	
771.800	-25.211	
771.900	-19.522	
772.000	-41.097	
772.100	-15.361	
772.200	-29.570	
772.300	-34.045	
772.400	-12.971	
772.500	-17.539	
772.600	-4.774	
772.700	-22.157	
772.800	-22.158	
772.900	-13.639	
773.000	-41.102	
773.100	-20.772	
773.200	-13.968	
773.300	-23.308	
773.400	-13.851	
773.500	-18.860	
773.600	-31.345	
773.700	-35.694	
773.800	-12.599	
773.900	-24.370	
774.000	-15.356	
774.100	-11.071	
774.200	-30.069	
774.300	-23.032	
774.400	-18.399	
774.500	-28.474	
774.600	-20.917	
774.700	-9.190	
774.800	-8.335	
774.900	-26.056	
775.000	-34.483	
775.100	-22.350	
775.200	-27.247	
775.300	-7.398	
775.400	-21.656	
775.500	-25.963	
775.600	-15.277	
775.700	-21.971	
775.800	-29.974	
775.900	-16.651	
776.000	-28.683	
776.100	-22.708	
776.200	-13.734	
776.300	-35.379	
776.400	-8.673	
776.500	-25.134	
776.600	-12.346	
776.700	-34.303	
776.800	-25.937	
776.900	-15.028	
777.000	-16.772	
777.100	-16.998	
777.200	-11.549	
777.300	-45.212	
777.400	-25.087	
777.500	-8.337	
777.600	-16.231	
777.700	-22.514	
777.800	-16.168	
777.900	-14.332	
778.000	-20.981	
778.100	-26.911	
778.200	-19.293	
778.300	-24.982	
778.400	-15.190	
778.500	-24.939	
778.600	-29.324	
778.700	-16.565	
778.800	-5.146	
778.900	-26.630	
779.000	-21.834	
779.100	-31.333	
779.200	-32.707	
779.300	-14.119	
779.400	-20.161	
779.500	-29.245	
779.600	-25.248	
779.700	-15.545	
779.800	-8.043	
779.900	-36.044	
780.000	-19.495	
780.100	1.856	
780.200	-0.179	
780.300	15.621	
780.400	27.719	
780.500	28.995	
780.600	20.984	
780.700	29.527	
780.800	40.199	
780.900	19.285	
781.000	44.377	
781.100	32.268	
781.200	32.247	
781.300	25.947	
781.400	30.584	
781.500	40.320	
781.600	39.734	
781.700	45.075	
781.800	38.447	
781.900	36.461	
782.000	54.617	
782.100	31.713	
782.200	36.073	
782.300	54.632	
782.400	35.053	
782.500	34.061	
782.600	33.253	
782.700	40.558	
782.800	34.094	
782.900	40.639	
783.000	33.673	
783.100	33.898	
783.200	41.710	
783.300	32.875	
783.400	25.669	
783.500	43.043	
783.600	35.196	
783.700	30.554	
783.800	32.354	
783.900	45.143	
784.000	37.923	
784.100	35.234	
784.200	35.571	
784.300	36.067	
784.400	36.302	
784.500	36.964	
784.600	41.735	
784.700	25.114	
784.800	34.886	
784.900	26.693	
785.000	26.287	
785.100	37.089	
785.200	39.431	
785.300	32.207	
785.400	39.945	
785.500	33.005	
785.600	33.869	
785.700	41.944	
785.800	26.406	
785.900	31.373	
786.000	38.516	
786.100	17.773	
786.200	30.478	
786.300	40.784	
786.400	35.232	
786.500	29.123	
786.600	44.014	
786.700	44.418	
786.800	35.985	
786.900	42.231	
787.000	42.152	
787.100	48.872	
787.200	40.212	
787.300	69.213	
787.400	53.711	
787.500	55.923	
787.600	49.013	
787.700	53.470	
787.800	48.686	
787.900	60.608	
788.000	58.759	
788.100	49.094	
788.200	48.395	
788.300	62.762	
788.400	60.012	
788.500	55.821	
788.600	43.443	
788.700	59.245	
788.800	61.022	
788.900	40.114	
789.000	64.358	
789.100	65.876	
789.200	52.208	
789.300	55.039	
789.400	65.484	
789.500	69.028	
789.600	48.178	
789.700	63.797	
789.800	61.053	
789.900	68.149	
790.000	57.545	
790.100	53.236	
790.200	53.922	
790.300	66.154	
790.400	55.008	
790.500	63.427	
790.600	75.569	
790.700	59.524	
790.800	54.615	
790.900	64.627	
791.000	67.418	
791.100	64.097	
791.200	61.841	
791.300	63.421	
791.400	78.235	
791.500	71.781	
791.600	67.433	
791.700	64.278	
791.800	65.652	
791.900	64.294	
792.000	63.558	
792.100	53.451	
792.200	66.116	
792.300	72.315	
792.400	69.087	
792.500	62.026	
792.600	61.756	
792.700	54.526	
792.800	66.507	
792.900	81.354	
793.000	56.578	
793.100	68.848	
793.200	54.396	
793.300	67.886	
793.400	50.062	
793.500	68.842	
793.600	60.676	
793.700	53.819	
793.800	68.180	
793.900	60.228	
794.000	61.479	
794.100	60.709	
794.200	75.289	
794.300	66.986	
794.400	70.845	
794.500	66.119	
794.600	57.412	
794.700	64.624	
794.800	63.308	
794.900	65.562	
795.000	74.020	
795.100	69.442	
795.200	57.696	
795.300	64.370	
795.400	50.467	
795.500	53.981	
795.600	69.600	
795.700	64.550	
795.800	66.453	
795.900	64.885	
796.000	62.520	
796.100	63.951	
796.200	64.023	
796.300	72.466	
796.400	72.364	
796.500	61.307	
796.600	50.442	
796.700	71.314	
796.800	72.826	
796.900	69.662	
797.000	63.908	
797.100	47.135	
797.200	75.395	
797.300	51.055	
797.400	57.340	
797.500	58.689	
797.600	62.910	
797.700	64.755	
797.800	56.846	
797.900	67.782	
798.000	71.068	
798.100	62.361	
798.200	65.499	
798.300	60.736	
798.400	63.005	
798.500	78.422	
798.600	56.108	
798.700	58.688	
798.800	64.022	
798.900	60.979	
799.000	43.019	
799.100	76.161	
799.200	45.438	
799.300	75.461	
799.400	74.055	
799.500	61.045	
799.600	57.822	
799.700	63.148	
799.800	81.228	
799.900	74.428	
800.000	67.415	
