time /s	I /nA	
0.100	17.574	
0.200	-1.175	
0.300	-21.434	
0.400	-17.426	
0.500	-11.232	
0.600	-30.251	
0.700	-12.901	
0.800	-11.572	
0.900	-9.898	
1.000	-13.850	
1.100	-21.048	
1.200	-21.521	
1.300	-1.011	
1.400	-8.797	
1.500	1.036	
1.600	-13.748	
1.700	-14.133	
1.800	-5.745	
1.900	-28.171	
2.000	-12.415	
2.100	-0.468	
2.200	-8.360	
2.300	-24.659	
2.400	-14.810	
2.500	-18.888	
2.600	-23.284	
2.700	-12.560	
2.800	-21.312	
2.900	-1.481	
3.000	-30.577	
3.100	-8.830	
3.200	-14.451	
3.300	-16.518	
3.400	-12.783	
3.500	-15.160	
3.600	-22.184	
3.700	-15.634	
3.800	-22.657	
3.900	-25.705	
4.000	-2.184	
4.100	-9.433	
4.200	-11.460	
4.300	-9.312	
4.400	-21.781	
4.500	-11.302	
4.600	-24.030	
4.700	-22.655	
4.800	-2.309	
4.900	-0.521	
5.000	-12.048	
5.100	-12.227	
5.200	-16.235	
5.300	-18.131	
5.400	-32.496	
5.500	-9.772	
5.600	-9.357	
5.700	-12.652	
5.800	-16.241	
5.900	-15.877	
6.000	-20.876	
6.100	-16.434	
6.200	-3.356	
6.300	-9.310	
6.400	-15.000	
6.500	-4.480	
6.600	-19.497	
6.700	-19.278	
6.800	-24.253	
6.900	-34.324	
7.000	-17.145	
7.100	-1.927	
7.200	-6.921	
7.300	-27.624	
7.400	-19.997	
7.500	-19.258	
7.600	-20.026	
7.700	2.433	
7.800	-4.201	
7.900	-19.573	
8.000	-27.817	
8.100	2.648	
8.200	-15.860	
8.300	-24.000	
8.400	-9.548	
8.500	-10.915	
8.600	-19.391	
8.700	-16.238	
8.800	-6.621	
8.900	-10.509	
9.000	-20.678	
9.100	-10.782	
9.200	-5.051	
9.300	-26.974	
9.400	-6.474	
9.500	-13.289	
9.600	-9.177	
9.700	-16.781	
9.800	-16.491	
9.900	-13.929	
10.000	-16.205	
10.100	-5.665	
10.200	-18.188	
10.300	-16.162	
10.400	-5.061	
10.500	-10.449	
10.600	-12.092	
10.700	-17.808	
10.800	2.744	
10.900	-19.374	
11.000	-7.782	
11.100	-18.208	
11.200	-29.479	
11.300	-18.538	
11.400	-4.039	
11.500	-27.980	
11.600	-13.018	
11.700	-6.524	
11.800	-10.865	
11.900	-18.418	
12.000	-13.523	
12.100	-15.425	
12.200	-12.386	
12.300	-27.363	
12.400	-12.183	
12.500	-4.904	
12.600	-7.333	
12.700	-7.323	
12.800	-13.123	
12.900	-10.775	
13.000	-29.636	
13.100	-34.408	
13.200	-5.115	
13.300	-8.437	
13.400	-10.481	
13.500	-9.288	
13.600	-17.887	
13.700	-33.712	
13.800	-24.375	
13.900	2.084	
14.000	3.631	
14.100	-18.649	
14.200	-2.645	
14.300	-9.516	
14.400	-20.414	
14.500	-21.176	
14.600	-6.912	
14.700	-21.489	
14.800	-11.590	
14.900	-15.217	
15.000	-25.522	
15.100	-9.129	
15.200	-28.227	
15.300	-8.038	
15.400	-11.672	
15.500	-4.173	
15.600	-26.776	
15.700	-4.019	
15.800	-24.635	
15.900	-15.144	
16.000	-20.556	
16.100	-15.499	
16.200	-14.932	
16.300	-19.245	
16.400	-27.380	
16.500	-7.131	
16.600	-2.843	
16.700	-9.619	
16.800	-22.673	
16.900	-5.796	
17.000	-12.369	
17.100	-16.391	
17.200	-20.381	
17.300	-9.895	
17.400	-11.037	
17.500	-3.398	
17.600	-13.563	
17.700	-18.750	
17.800	3.953	
17.900	-14.187	
18.000	-18.882	
18.100	-20.746	
18.200	2.276	
18.300	-33.716	
18.400	-11.213	
18.500	-13.919	
18.600	-13.137	
18.700	-4.059	
18.800	-11.334	
18.900	-11.726	
19.000	-10.196	
19.100	-18.969	
19.200	-17.742	
19.300	-4.563	
19.400	-14.374	
19.500	-13.420	
19.600	-6.860	
19.700	-9.607	
19.800	-1.955	
19.900	-22.567	
20.000	-2.231	
20.100	-11.641	
20.200	-13.740	
20.300	-9.612	
20.400	-15.505	
20.500	-25.251	
20.600	-6.840	
20.700	-13.535	
20.800	-28.257	
20.900	-3.571	
21.000	1.111	
21.100	-30.646	
21.200	-15.229	
21.300	-2.965	
21.400	3.063	
21.500	-3.708	
21.600	-15.333	
21.700	-26.202	
21.800	-4.928	
21.900	0.934	
22.000	-12.484	
22.100	-25.234	
22.200	-16.541	
22.300	-13.685	
22.400	-2.495	
22.500	-14.863	
22.600	-29.929	
22.700	-12.707	
22.800	-9.503	
22.900	-13.612	
23.000	1.351	
23.100	-11.886	
23.200	-3.347	
23.300	-16.541	
23.400	-27.987	
23.500	-6.666	
23.600	8.591	
23.700	-14.466	
23.800	-6.978	
23.900	-15.037	
24.000	-17.608	
24.100	-3.098	
24.200	-17.455	
24.300	-15.922	
24.400	-14.489	
24.500	-2.192	
24.600	-12.217	
24.700	-16.985	
24.800	-6.054	
24.900	-14.256	
25.000	-13.045	
25.100	-8.137	
25.200	3.838	
25.300	-17.208	
25.400	-15.890	
25.500	-13.015	
25.600	-9.759	
25.700	-20.871	
25.800	-13.750	
25.900	-18.613	
26.000	-37.015	
26.100	3.113	
26.200	-15.904	
26.300	-15.282	
26.400	-18.368	
26.500	-22.814	
26.600	-8.725	
26.700	0.502	
26.800	-17.405	
26.900	2.977	
27.000	-6.776	
27.100	-15.192	
27.200	-12.957	
27.300	-6.459	
27.400	-25.261	
27.500	-11.522	
27.600	-0.450	
27.700	-7.730	
27.800	-9.057	
27.900	-12.871	
28.000	-15.741	
28.100	-24.425	
28.200	-4.389	
28.300	-4.611	
28.400	-0.470	
28.500	-8.684	
28.600	-14.127	
28.700	-5.375	
28.800	-12.010	
28.900	-11.566	
29.000	-13.180	
29.100	-11.322	
29.200	-9.188	
29.300	-7.588	
29.400	13.761	
29.500	23.936	
29.600	27.034	
29.700	40.568	
29.800	37.305	
29.900	53.435	
30.000	54.515	
30.100	68.967	
30.200	45.257	
30.300	62.294	
30.400	76.090	
30.500	54.713	
30.600	68.462	
30.700	80.627	
30.800	62.294	
30.900	60.868	
31.000	62.923	
31.100	81.645	
31.200	68.426	
31.300	63.149	
31.400	84.784	
31.500	75.750	
31.600	73.827	
31.700	66.425	
31.800	60.138	
31.900	77.328	
32.000	65.634	
32.100	67.687	
32.200	62.792	
32.300	53.063	
32.400	64.721	
32.500	55.360	
32.600	65.500	
32.700	45.139	
32.800	45.239	
32.900	45.254	
33.000	59.049	
33.100	50.112	
33.200	67.360	
33.300	52.469	
33.400	63.072	
33.500	55.232	
33.600	62.447	
33.700	32.731	
33.800	39.701	
33.900	58.606	
34.000	65.478	
34.100	45.621	
34.200	51.687	
34.300	46.768	
34.400	41.273	
34.500	45.218	
34.600	54.627	
34.700	56.780	
34.800	67.622	
34.900	54.825	
35.000	44.813	
35.100	59.330	
35.200	48.578	
35.300	55.551	
35.400	55.142	
35.500	53.755	
35.600	74.096	
35.700	65.488	
35.800	48.701	
35.900	60.981	
36.000	73.121	
36.100	55.228	
36.200	74.096	
36.300	69.921	
36.400	62.616	
36.500	65.919	
36.600	63.480	
36.700	64.594	
36.800	81.547	
36.900	53.285	
37.000	78.699	
37.100	83.453	
37.200	58.503	
37.300	73.547	
37.400	74.501	
37.500	72.703	
37.600	81.485	
37.700	64.187	
37.800	78.418	
37.900	76.144	
38.000	70.106	
38.100	65.580	
38.200	83.753	
38.300	69.121	
38.400	91.096	
38.500	82.292	
38.600	75.690	
38.700	74.548	
38.800	63.566	
38.900	79.020	
39.000	82.181	
39.100	78.993	
39.200	83.049	
39.300	81.519	
39.400	77.314	
39.500	79.850	
39.600	84.736	
39.700	89.790	
39.800	77.660	
39.900	80.851	
40.000	77.623	
40.100	80.194	
40.200	84.063	
40.300	87.911	
40.400	79.695	
40.500	83.235	
40.600	90.447	
40.700	63.935	
40.800	99.071	
40.900	98.879	
41.000	92.049	
41.100	83.977	
41.200	81.206	
41.300	82.846	
41.400	86.178	
41.500	86.964	
41.600	92.414	
41.700	94.874	
41.800	77.573	
41.900	88.260	
42.000	72.710	
42.100	80.779	
42.200	80.233	
42.300	83.454	
42.400	90.194	
42.500	92.079	
42.600	81.099	
42.700	71.832	
42.800	102.606	
42.900	77.386	
43.000	106.336	
43.100	92.135	
43.200	80.321	
43.300	85.454	
43.400	79.351	
43.500	85.201	
43.600	76.338	
43.700	94.296	
43.800	85.008	
43.900	82.840	
44.000	82.266	
44.100	84.242	
44.200	79.850	
44.300	92.339	
44.400	83.986	
44.500	80.223	
44.600	77.378	
44.700	90.437	
44.800	84.854	
44.900	88.937	
45.000	68.994	
45.100	106.542	
45.200	79.115	
45.300	97.049	
45.400	90.613	
45.500	77.539	
45.600	78.549	
45.700	87.412	
45.800	90.379	
45.900	65.141	
46.000	88.798	
46.100	91.448	
46.200	89.720	
46.300	91.711	
46.400	77.856	
46.500	76.820	
46.600	83.727	
46.700	96.874	
46.800	93.351	
46.900	76.269	
47.000	85.279	
47.100	85.220	
47.200	96.485	
47.300	84.239	
47.400	79.744	
47.500	94.040	
47.600	84.993	
47.700	81.587	
47.800	75.067	
47.900	84.924	
48.000	91.801	
48.100	70.748	
48.200	87.208	
48.300	67.033	
48.400	76.859	
48.500	86.026	
48.600	82.837	
48.700	73.581	
48.800	81.604	
48.900	83.166	
49.000	83.098	
49.100	84.763	
49.200	73.213	
49.300	82.990	
49.400	87.396	
49.500	71.641	
49.600	72.649	
49.700	85.036	
49.800	82.587	
49.900	75.073	
50.000	86.681	
50.100	82.487	
50.200	81.964	
50.300	62.788	
50.400	78.078	
50.500	75.759	
50.600	80.380	
50.700	71.669	
50.800	80.624	
50.900	72.924	
51.000	86.573	
51.100	73.717	
51.200	70.619	
51.300	75.659	
51.400	75.407	
51.500	69.087	
51.600	73.691	
51.700	65.360	
51.800	67.480	
51.900	72.668	
52.000	72.836	
52.100	68.936	
52.200	78.494	
52.300	82.675	
52.400	60.162	
52.500	63.287	
52.600	51.799	
52.700	83.419	
52.800	78.442	
52.900	59.892	
53.000	77.292	
53.100	52.649	
53.200	75.820	
53.300	83.395	
53.400	63.317	
53.500	65.926	
53.600	82.971	
53.700	71.515	
53.800	72.713	
53.900	75.111	
54.000	63.516	
54.100	73.130	
54.200	69.257	
54.300	78.879	
54.400	64.611	
54.500	67.372	
54.600	56.234	
54.700	60.947	
54.800	79.416	
54.900	58.007	
55.000	68.289	
55.100	61.489	
55.200	66.294	
55.300	72.601	
55.400	64.245	
55.500	54.100	
55.600	66.472	
55.700	66.717	
55.800	64.885	
55.900	51.760	
56.000	59.880	
56.100	61.801	
56.200	71.694	
56.300	53.667	
56.400	65.310	
56.500	56.634	
56.600	62.376	
56.700	74.487	
56.800	56.796	
56.900	51.291	
57.000	57.210	
57.100	89.898	
57.200	55.451	
57.300	66.483	
57.400	58.159	
57.500	54.373	
57.600	66.889	
57.700	81.156	
57.800	53.058	
57.900	61.735	
58.000	56.089	
58.100	61.333	
58.200	58.637	
58.300	47.525	
58.400	77.948	
58.500	63.266	
58.600	50.314	
58.700	69.549	
58.800	77.593	
58.900	53.154	
59.000	66.366	
59.100	70.803	
59.200	60.649	
59.300	60.247	
59.400	60.066	
59.500	62.635	
59.600	56.114	
59.700	57.482	
59.800	58.997	
59.900	56.707	
60.000	54.875	
60.100	77.108	
60.200	60.561	
60.300	58.415	
60.400	64.120	
60.500	49.322	
60.600	44.280	
60.700	50.608	
60.800	69.508	
60.900	57.635	
61.000	50.848	
61.100	54.200	
61.200	62.443	
61.300	65.417	
61.400	48.136	
61.500	56.944	
61.600	68.334	
61.700	47.042	
61.800	65.821	
61.900	54.425	
62.000	66.505	
62.100	51.799	
62.200	55.182	
62.300	66.855	
62.400	53.805	
62.500	68.155	
62.600	62.836	
62.700	55.611	
62.800	65.929	
62.900	41.552	
63.000	72.897	
63.100	59.465	
63.200	53.223	
63.300	64.046	
63.400	46.836	
63.500	65.105	
63.600	55.580	
63.700	54.106	
63.800	68.635	
63.900	53.927	
64.000	49.460	
64.100	64.168	
64.200	52.888	
64.300	59.227	
64.400	63.725	
64.500	44.069	
64.600	55.186	
64.700	49.261	
64.800	52.286	
64.900	46.130	
65.000	58.804	
65.100	61.763	
65.200	51.072	
65.300	64.947	
65.400	44.838	
65.500	65.901	
65.600	67.724	
65.700	55.269	
65.800	70.481	
65.900	52.137	
66.000	57.279	
66.100	58.831	
66.200	58.508	
66.300	61.894	
66.400	66.880	
66.500	62.533	
66.600	51.582	
66.700	62.872	
66.800	44.434	
66.900	48.321	
67.000	39.737	
67.100	49.387	
67.200	52.789	
67.300	55.945	
67.400	54.820	
67.500	61.828	
67.600	66.668	
67.700	41.691	
67.800	61.625	
67.900	59.834	
68.000	42.116	
68.100	65.149	
68.200	52.476	
68.300	60.459	
68.400	59.586	
68.500	43.665	
68.600	60.041	
68.700	65.712	
68.800	61.386	
68.900	69.702	
69.000	48.730	
69.100	57.880	
69.200	60.760	
69.300	43.670	
69.400	51.708	
69.500	55.263	
69.600	56.947	
69.700	65.921	
69.800	70.423	
69.900	59.319	
70.000	51.344	
70.100	61.992	
70.200	41.268	
70.300	64.320	
70.400	56.517	
70.500	65.401	
70.600	55.543	
70.700	51.908	
70.800	53.126	
70.900	63.582	
71.000	62.529	
71.100	61.181	
71.200	54.138	
71.300	63.677	
71.400	43.412	
71.500	68.705	
71.600	52.132	
71.700	71.639	
71.800	60.552	
71.900	64.539	
72.000	58.474	
72.100	61.059	
72.200	61.781	
72.300	52.164	
72.400	52.142	
72.500	65.341	
72.600	61.243	
72.700	68.486	
72.800	60.458	
72.900	57.396	
73.000	51.237	
73.100	56.939	
73.200	67.855	
73.300	52.095	
73.400	60.723	
73.500	67.896	
73.600	63.374	
73.700	69.993	
73.800	65.493	
73.900	71.303	
74.000	53.376	
74.100	55.511	
74.200	76.926	
74.300	54.784	
74.400	51.244	
74.500	66.243	
74.600	59.108	
74.700	51.514	
74.800	63.966	
74.900	68.594	
75.000	66.763	
75.100	42.665	
75.200	68.189	
75.300	54.082	
75.400	56.711	
75.500	76.675	
75.600	68.961	
75.700	52.948	
75.800	63.156	
75.900	52.767	
76.000	78.798	
76.100	72.093	
76.200	59.808	
76.300	57.391	
76.400	65.165	
76.500	64.571	
76.600	66.429	
76.700	62.797	
76.800	62.797	
76.900	73.544	
77.000	66.374	
77.100	69.861	
77.200	61.340	
77.300	57.868	
77.400	61.972	
77.500	65.098	
77.600	73.123	
77.700	65.260	
77.800	71.724	
77.900	58.670	
78.000	70.129	
78.100	59.041	
78.200	67.730	
78.300	75.351	
78.400	64.329	
78.500	61.873	
78.600	65.879	
78.700	73.112	
78.800	70.691	
78.900	53.847	
79.000	62.497	
79.100	58.257	
79.200	70.660	
79.300	64.757	
79.400	77.425	
79.500	75.736	
79.600	60.450	
79.700	63.032	
79.800	60.607	
79.900	61.991	
80.000	55.431	
80.100	64.088	
80.200	57.069	
80.300	71.415	
80.400	59.553	
80.500	72.406	
80.600	65.771	
80.700	72.212	
80.800	63.828	
80.900	59.511	
81.000	88.504	
81.100	52.503	
81.200	83.578	
81.300	65.743	
81.400	59.627	
81.500	70.733	
81.600	71.407	
81.700	64.390	
81.800	70.839	
81.900	69.121	
82.000	88.546	
82.100	65.493	
82.200	77.315	
82.300	68.550	
82.400	67.919	
82.500	70.232	
82.600	69.512	
82.700	63.516	
82.800	74.652	
82.900	57.755	
83.000	80.792	
83.100	68.438	
83.200	61.826	
83.300	69.202	
83.400	72.175	
83.500	63.188	
83.600	71.156	
83.700	82.039	
83.800	75.947	
83.900	71.285	
84.000	66.977	
84.100	64.508	
84.200	67.883	
84.300	69.596	
84.400	71.514	
84.500	80.313	
84.600	66.433	
84.700	76.061	
84.800	68.088	
84.900	86.484	
85.000	80.905	
85.100	73.709	
85.200	70.358	
85.300	71.236	
85.400	73.472	
85.500	62.621	
85.600	81.349	
85.700	73.832	
85.800	61.832	
85.900	91.442	
86.000	83.549	
86.100	73.403	
86.200	78.779	
86.300	71.262	
86.400	81.014	
86.500	69.639	
86.600	78.977	
86.700	71.376	
86.800	83.825	
86.900	62.375	
87.000	74.696	
87.100	67.725	
87.200	82.487	
87.300	77.637	
87.400	75.863	
87.500	57.895	
87.600	87.646	
87.700	79.006	
87.800	81.783	
87.900	76.583	
88.000	66.065	
88.100	74.036	
88.200	67.193	
88.300	81.085	
88.400	60.238	
88.500	69.514	
88.600	79.653	
88.700	68.322	
88.800	80.528	
88.900	81.903	
89.000	64.256	
89.100	73.990	
89.200	66.667	
89.300	62.709	
89.400	62.715	
89.500	44.649	
89.600	48.593	
89.700	36.552	
89.800	23.814	
89.900	29.528	
90.000	25.340	
90.100	20.377	
90.200	24.171	
90.300	14.101	
90.400	9.822	
90.500	14.966	
90.600	-16.409	
90.700	0.349	
90.800	-8.952	
90.900	0.750	
91.000	-27.928	
91.100	-20.620	
91.200	-27.941	
91.300	-19.974	
91.400	-52.372	
91.500	-6.087	
91.600	-35.920	
91.700	-31.529	
91.800	-40.761	
91.900	-46.029	
92.000	-55.795	
92.100	-38.545	
92.200	-53.083	
92.300	-52.529	
92.400	-43.382	
92.500	-43.833	
92.600	-57.675	
92.700	-61.817	
92.800	-66.636	
92.900	-53.962	
93.000	-50.298	
93.100	-64.278	
93.200	-49.573	
93.300	-69.895	
93.400	-47.951	
93.500	-60.000	
93.600	-49.785	
93.700	-69.176	
93.800	-69.700	
93.900	-52.686	
94.000	-63.803	
94.100	-51.854	
94.200	-64.210	
94.300	-65.970	
94.400	-65.960	
94.500	-53.948	
94.600	-66.992	
94.700	-60.658	
94.800	-49.115	
94.900	-49.295	
95.000	-65.481	
95.100	-53.296	
95.200	-52.502	
95.300	-51.531	
95.400	-70.820	
95.500	-53.808	
95.600	-47.292	
95.700	-52.992	
95.800	-50.218	
95.900	-57.116	
96.000	-62.339	
96.100	-52.101	
96.200	-51.072	
96.300	-50.724	
96.400	-46.754	
96.500	-48.860	
96.600	-43.899	
96.700	-51.706	
96.800	-48.636	
96.900	-37.243	
97.000	-61.185	
97.100	-35.361	
97.200	-28.982	
97.300	-42.113	
97.400	-53.736	
97.500	-61.854	
97.600	-27.496	
97.700	-33.729	
97.800	-34.774	
97.900	-43.160	
98.000	-31.386	
98.100	-54.174	
98.200	-42.850	
98.300	-31.101	
98.400	-39.214	
98.500	-39.669	
98.600	-32.562	
98.700	-33.663	
98.800	-31.833	
98.900	-31.916	
99.000	-35.910	
99.100	-49.995	
99.200	-33.412	
99.300	-37.451	
99.400	-27.001	
99.500	-41.428	
99.600	-29.515	
99.700	-32.445	
99.800	-36.316	
99.900	-34.838	
100.000	-34.976	
100.100	-34.410	
100.200	-15.186	
100.300	-30.813	
100.400	-25.955	
100.500	-52.694	
100.600	-39.257	
100.700	-21.711	
100.800	-39.856	
100.900	-40.095	
101.000	-32.448	
101.100	-31.768	
101.200	-23.496	
101.300	-26.563	
101.400	-27.040	
101.500	-23.117	
101.600	-35.320	
101.700	-44.958	
101.800	-32.626	
101.900	-23.010	
102.000	-21.965	
102.100	-32.715	
102.200	-34.077	
102.300	-36.531	
102.400	-26.205	
102.500	-29.200	
102.600	-31.139	
102.700	-24.861	
102.800	-33.160	
102.900	-58.721	
103.000	-30.367	
103.100	-20.447	
103.200	-41.925	
103.300	-37.759	
103.400	-23.248	
103.500	-37.721	
103.600	-25.381	
103.700	-16.937	
103.800	-50.583	
103.900	-19.375	
104.000	-33.167	
104.100	-27.130	
104.200	-31.634	
104.300	-28.783	
104.400	-28.655	
104.500	-35.991	
104.600	-46.494	
104.700	-11.660	
104.800	-29.670	
104.900	-30.523	
105.000	-38.537	
105.100	-30.558	
105.200	-18.480	
105.300	-42.774	
105.400	-25.590	
105.500	-33.989	
105.600	-30.247	
105.700	-30.374	
105.800	-38.583	
105.900	-28.536	
106.000	-35.281	
106.100	-31.616	
106.200	-28.084	
106.300	-39.254	
106.400	-36.051	
106.500	-38.403	
106.600	-19.800	
106.700	-35.593	
106.800	-34.237	
106.900	-27.224	
107.000	-19.877	
107.100	-29.375	
107.200	-40.041	
107.300	-28.565	
107.400	-30.331	
107.500	-49.038	
107.600	-22.998	
107.700	-36.917	
107.800	-13.697	
107.900	-47.389	
108.000	-22.365	
108.100	-35.482	
108.200	-43.474	
108.300	-35.435	
108.400	-43.284	
108.500	-23.447	
108.600	-40.178	
108.700	-30.032	
108.800	-22.115	
108.900	-31.348	
109.000	-35.617	
109.100	-18.912	
109.200	-32.278	
109.300	-42.346	
109.400	-30.588	
109.500	-40.243	
109.600	-29.098	
109.700	-33.735	
109.800	-50.010	
109.900	-51.111	
110.000	-31.914	
110.100	-21.058	
110.200	-42.422	
110.300	-14.035	
110.400	-29.712	
110.500	-37.179	
110.600	-30.105	
110.700	-28.024	
110.800	-38.414	
110.900	-44.766	
111.000	-24.642	
111.100	-37.216	
111.200	-34.178	
111.300	-33.340	
111.400	-27.776	
111.500	-24.148	
111.600	-28.769	
111.700	-38.240	
111.800	-30.044	
111.900	-41.473	
112.000	-32.100	
112.100	-31.619	
112.200	-23.257	
112.300	-26.107	
112.400	-37.974	
112.500	-29.087	
112.600	-36.074	
112.700	-39.727	
112.800	-24.293	
112.900	-44.048	
113.000	-31.176	
113.100	-27.212	
113.200	-43.650	
113.300	-27.357	
113.400	-26.982	
113.500	-36.685	
113.600	-41.390	
113.700	-27.476	
113.800	-51.237	
113.900	-24.322	
114.000	-20.827	
114.100	-30.858	
114.200	-47.254	
114.300	-33.522	
114.400	-30.821	
114.500	-42.512	
114.600	-20.950	
114.700	-45.241	
114.800	-41.477	
114.900	-36.335	
115.000	-36.047	
115.100	-44.550	
115.200	-27.927	
115.300	-25.255	
115.400	-33.852	
115.500	-20.102	
115.600	-48.347	
115.700	-24.465	
115.800	-35.278	
115.900	-26.118	
116.000	-30.358	
116.100	-33.455	
116.200	-51.376	
116.300	-36.797	
116.400	-40.954	
116.500	-34.426	
116.600	-33.100	
116.700	-30.896	
116.800	-46.146	
116.900	-35.334	
117.000	-29.861	
117.100	-35.961	
117.200	-41.715	
117.300	-31.342	
117.400	-38.204	
117.500	-55.855	
117.600	-26.005	
117.700	-19.026	
117.800	-27.081	
117.900	-35.079	
118.000	-24.725	
118.100	-27.838	
118.200	-38.406	
118.300	-36.107	
118.400	-38.350	
118.500	-21.203	
118.600	-41.450	
118.700	-37.142	
118.800	-35.533	
118.900	-41.116	
119.000	-20.843	
119.100	-39.152	
119.200	-32.299	
119.300	-38.612	
119.400	-46.016	
119.500	-24.652	
119.600	-31.910	
119.700	-36.862	
119.800	-34.508	
119.900	-20.379	
120.000	-34.829	
120.100	-22.282	
120.200	-30.528	
120.300	-39.120	
120.400	-26.185	
120.500	-52.482	
120.600	-37.578	
120.700	-36.415	
120.800	-29.437	
120.900	-31.291	
121.000	-22.746	
121.100	-30.336	
121.200	-41.374	
121.300	-33.956	
121.400	-41.273	
121.500	-32.959	
121.600	-26.721	
121.700	-43.629	
121.800	-39.387	
121.900	-39.720	
122.000	-22.675	
122.100	-42.120	
122.200	-46.316	
122.300	-24.872	
122.400	-42.704	
122.500	-35.991	
122.600	-18.093	
122.700	-29.580	
122.800	-28.153	
122.900	-33.587	
123.000	-36.347	
123.100	-31.610	
123.200	-25.573	
123.300	-34.663	
123.400	-24.107	
123.500	-44.024	
123.600	-12.430	
123.700	-21.262	
123.800	-32.454	
123.900	-37.683	
124.000	-34.968	
124.100	-16.770	
124.200	-30.519	
124.300	-27.756	
124.400	-41.910	
124.500	-46.347	
124.600	-28.982	
124.700	-32.716	
124.800	-22.783	
124.900	-38.653	
125.000	-32.059	
125.100	-22.866	
125.200	-25.822	
125.300	-44.372	
125.400	-30.382	
125.500	-40.688	
125.600	-29.885	
125.700	-25.447	
125.800	-39.316	
125.900	-19.758	
126.000	-37.906	
126.100	-30.287	
126.200	-28.540	
126.300	-40.628	
126.400	-39.414	
126.500	-27.348	
126.600	-34.870	
126.700	-30.979	
126.800	-28.877	
126.900	-35.204	
127.000	-40.371	
127.100	-52.142	
127.200	-31.486	
127.300	-24.516	
127.400	-30.027	
127.500	-35.385	
127.600	-32.672	
127.700	-43.368	
127.800	-38.387	
127.900	-38.368	
128.000	-19.441	
128.100	-43.922	
128.200	-24.106	
128.300	-30.881	
128.400	-15.809	
128.500	-37.542	
128.600	-32.618	
128.700	-40.837	
128.800	-34.700	
128.900	-40.576	
129.000	-27.583	
129.100	-31.310	
129.200	-26.839	
129.300	-24.843	
129.400	-32.607	
129.500	-20.835	
129.600	-25.605	
129.700	-35.692	
129.800	-27.913	
129.900	-48.687	
130.000	-22.917	
130.100	-19.690	
130.200	-24.146	
130.300	-32.675	
130.400	-28.328	
130.500	-42.255	
130.600	-31.584	
130.700	-33.954	
130.800	-19.696	
130.900	-50.587	
131.000	-26.877	
131.100	-26.834	
131.200	-23.760	
131.300	-18.212	
131.400	-33.780	
131.500	-51.101	
131.600	-39.218	
131.700	-43.042	
131.800	-17.187	
131.900	-25.675	
132.000	-35.217	
132.100	-24.546	
132.200	-37.096	
132.300	-32.342	
132.400	-38.921	
132.500	-17.179	
132.600	-32.306	
132.700	-30.057	
132.800	-22.008	
132.900	-26.400	
133.000	-32.984	
133.100	-31.545	
133.200	-24.936	
133.300	-31.480	
133.400	-28.054	
133.500	-15.595	
133.600	-42.525	
133.700	-23.477	
133.800	-21.278	
133.900	-39.487	
134.000	-31.848	
134.100	-41.412	
134.200	-27.372	
134.300	-35.845	
134.400	-21.831	
134.500	-25.867	
134.600	-34.086	
134.700	-18.658	
134.800	-29.399	
134.900	-27.721	
135.000	-36.693	
135.100	-21.364	
135.200	-14.518	
135.300	-40.021	
135.400	-29.609	
135.500	-33.635	
135.600	-43.033	
135.700	-20.291	
135.800	-26.196	
135.900	-36.266	
136.000	-18.388	
136.100	-35.808	
136.200	-29.876	
136.300	-30.516	
136.400	-25.383	
136.500	-38.888	
136.600	-21.604	
136.700	-33.744	
136.800	-21.297	
136.900	-26.312	
137.000	-33.088	
137.100	-25.883	
137.200	-32.735	
137.300	-25.426	
137.400	-23.696	
137.500	-39.440	
137.600	-19.317	
137.700	-27.304	
137.800	-31.073	
137.900	-48.170	
138.000	-37.525	
138.100	-21.837	
138.200	-23.857	
138.300	-25.686	
138.400	-23.843	
138.500	-20.435	
138.600	-32.686	
138.700	-26.608	
138.800	-24.497	
138.900	-21.966	
139.000	-19.428	
139.100	-27.325	
139.200	-21.628	
139.300	-30.582	
139.400	-32.455	
139.500	-16.732	
139.600	-24.880	
139.700	-23.394	
139.800	-35.024	
139.900	-29.899	
140.000	-34.697	
140.100	-32.141	
140.200	-27.019	
140.300	-20.978	
140.400	-23.058	
140.500	-40.741	
140.600	-39.799	
140.700	-6.294	
140.800	-31.290	
140.900	-35.274	
141.000	-20.775	
141.100	-26.398	
141.200	-20.874	
141.300	-17.029	
141.400	-20.626	
141.500	-36.450	
141.600	-25.130	
141.700	-36.283	
141.800	-31.954	
141.900	-22.078	
142.000	-31.574	
142.100	-43.717	
142.200	-23.725	
142.300	-24.747	
142.400	-31.227	
142.500	-19.815	
142.600	-21.225	
142.700	-23.425	
142.800	-34.068	
142.900	-32.259	
143.000	-49.989	
143.100	-25.298	
143.200	-25.962	
143.300	-24.678	
143.400	-21.943	
143.500	-30.275	
143.600	-17.558	
143.700	-31.555	
143.800	-33.129	
143.900	-28.241	
144.000	-20.501	
144.100	-19.836	
144.200	-7.474	
144.300	-21.373	
144.400	-14.419	
144.500	-22.548	
144.600	-20.642	
144.700	-22.804	
144.800	-37.364	
144.900	-5.900	
145.000	-36.162	
145.100	-12.349	
145.200	-28.882	
145.300	-17.957	
145.400	-36.462	
145.500	-27.637	
145.600	-18.064	
145.700	-28.756	
145.800	-10.422	
145.900	-5.545	
146.000	-41.071	
146.100	-3.221	
146.200	-21.019	
146.300	-25.130	
146.400	-22.943	
146.500	-9.915	
146.600	-37.586	
146.700	-24.560	
146.800	-14.690	
146.900	-25.497	
147.000	-26.139	
147.100	-22.229	
147.200	-21.806	
147.300	-17.152	
147.400	-33.700	
147.500	-9.961	
147.600	-35.596	
147.700	-32.028	
147.800	-24.448	
147.900	-34.591	
148.000	-21.559	
148.100	-33.125	
148.200	-14.430	
148.300	-3.526	
148.400	-34.820	
148.500	-15.326	
148.600	-30.074	
148.700	-17.357	
148.800	-27.942	
148.900	-23.799	
149.000	-25.823	
149.100	-12.520	
149.200	-28.459	
149.300	-20.570	
149.400	-36.662	
149.500	-29.120	
149.600	-34.129	
149.700	-17.689	
149.800	-15.958	
149.900	-27.426	
150.000	-28.681	
150.100	-18.294	
150.200	-25.408	
150.300	-18.512	
150.400	-18.509	
150.500	-32.224	
150.600	-24.970	
150.700	-41.853	
150.800	-24.661	
150.900	-10.459	
151.000	-48.047	
151.100	-24.426	
151.200	-43.095	
151.300	-26.951	
151.400	-20.158	
151.500	-36.918	
151.600	-16.190	
151.700	-28.868	
151.800	-19.940	
151.900	-25.781	
152.000	-18.961	
152.100	-29.630	
152.200	-4.997	
152.300	-11.409	
152.400	-21.535	
152.500	-3.952	
152.600	-24.993	
152.700	-22.148	
152.800	-19.500	
152.900	-28.840	
153.000	-15.775	
153.100	-24.471	
153.200	-12.345	
153.300	-36.132	
153.400	-23.828	
153.500	-34.677	
153.600	-7.490	
153.700	-8.641	
153.800	-29.455	
153.900	-16.064	
154.000	-25.406	
154.100	-23.424	
154.200	-20.133	
154.300	-29.576	
154.400	-16.103	
154.500	-16.666	
154.600	-11.836	
154.700	-26.655	
154.800	-17.633	
154.900	-25.105	
155.000	-30.930	
155.100	-30.270	
155.200	-29.539	
155.300	-5.720	
155.400	-26.815	
155.500	-18.122	
155.600	-27.697	
155.700	4.738	
155.800	-27.597	
155.900	-15.001	
156.000	-26.980	
156.100	-24.354	
156.200	-4.966	
156.300	-16.801	
156.400	-26.560	
156.500	-34.876	
156.600	-25.695	
156.700	-7.747	
156.800	-17.227	
156.900	-11.201	
157.000	-31.455	
157.100	-24.743	
157.200	-12.844	
157.300	-18.857	
157.400	-14.483	
157.500	-30.537	
157.600	-8.790	
157.700	-30.341	
157.800	-18.504	
157.900	-38.740	
158.000	-11.764	
158.100	-14.548	
158.200	-23.714	
158.300	-27.751	
158.400	-21.250	
158.500	-22.972	
158.600	-21.194	
158.700	-32.136	
158.800	-14.966	
158.900	-44.885	
159.000	-19.093	
159.100	-16.454	
159.200	-29.486	
159.300	-12.323	
159.400	-26.074	
159.500	-20.145	
159.600	-20.134	
159.700	-14.894	
159.800	-25.844	
159.900	-35.282	
160.000	-28.792	
160.100	-24.077	
160.200	-7.376	
160.300	-35.266	
160.400	-15.163	
160.500	-15.172	
160.600	-14.537	
160.700	-13.039	
160.800	-16.245	
160.900	-34.856	
161.000	-27.556	
161.100	-6.547	
161.200	-21.602	
161.300	-20.399	
161.400	-15.335	
161.500	-12.118	
161.600	-18.474	
161.700	-16.761	
161.800	-19.247	
161.900	-16.365	
162.000	-20.151	
162.100	-29.126	
162.200	-30.225	
162.300	-23.185	
162.400	-10.576	
162.500	-20.856	
162.600	-2.106	
162.700	-22.980	
162.800	-23.787	
162.900	-7.294	
163.000	-15.449	
163.100	-27.482	
163.200	-21.693	
163.300	-9.809	
163.400	-19.343	
163.500	-21.956	
163.600	-23.436	
163.700	-14.472	
163.800	-11.579	
163.900	-33.512	
164.000	-10.045	
164.100	-18.623	
164.200	-12.027	
164.300	-30.056	
164.400	-13.834	
164.500	-5.422	
164.600	-12.033	
164.700	-17.090	
164.800	-13.352	
164.900	-23.654	
165.000	-27.085	
165.100	-34.056	
165.200	-17.919	
165.300	-20.335	
165.400	-11.971	
165.500	-21.844	
165.600	-24.967	
165.700	-10.024	
165.800	-25.939	
165.900	-34.426	
166.000	-6.201	
166.100	-14.810	
166.200	-20.286	
166.300	-32.545	
166.400	-10.755	
166.500	-25.859	
166.600	-21.339	
166.700	-8.861	
166.800	-17.813	
166.900	-24.253	
167.000	-20.730	
167.100	-19.012	
167.200	-12.486	
167.300	-9.615	
167.400	-10.003	
167.500	-17.245	
167.600	-5.681	
167.700	-8.488	
167.800	-13.194	
167.900	-22.298	
168.000	-16.103	
168.100	-20.954	
168.200	-20.250	
168.300	-21.943	
168.400	-28.068	
168.500	-11.311	
168.600	-30.191	
168.700	-16.190	
168.800	-0.206	
168.900	-26.000	
169.000	-25.900	
169.100	-14.979	
169.200	-19.728	
169.300	-24.454	
169.400	-28.910	
169.500	-22.905	
169.600	-17.722	
169.700	-13.628	
169.800	-21.947	
169.900	-23.607	
170.000	-24.588	
170.100	-15.926	
170.200	-25.703	
170.300	-23.412	
170.400	-5.849	
170.500	-21.823	
170.600	-17.032	
170.700	-17.535	
170.800	-17.793	
170.900	-24.918	
171.000	-10.243	
171.100	-24.254	
171.200	-18.732	
171.300	-13.437	
171.400	-18.562	
171.500	-30.609	
171.600	-8.408	
171.700	-21.581	
171.800	-22.830	
171.900	-14.599	
172.000	-8.421	
172.100	-21.770	
172.200	-20.230	
172.300	-21.962	
172.400	-10.872	
172.500	-23.087	
172.600	-8.725	
172.700	-25.244	
172.800	-23.197	
172.900	-27.847	
173.000	-12.054	
173.100	-15.221	
173.200	-19.121	
173.300	-9.520	
173.400	-19.790	
173.500	-25.236	
173.600	-17.266	
173.700	-11.336	
173.800	-22.095	
173.900	-21.131	
174.000	-6.077	
174.100	-25.171	
174.200	-25.175	
174.300	-11.585	
174.400	-24.154	
174.500	-13.323	
174.600	-10.433	
174.700	-15.146	
174.800	-14.950	
174.900	-29.045	
175.000	-33.654	
175.100	-15.001	
175.200	-12.033	
175.300	-9.307	
175.400	-10.200	
175.500	-21.105	
175.600	-7.734	
175.700	-6.684	
175.800	-19.462	
175.900	-18.384	
176.000	-28.285	
176.100	-1.700	
176.200	-8.811	
176.300	-8.679	
176.400	-14.566	
176.500	-19.527	
176.600	-17.207	
176.700	-18.994	
176.800	-0.127	
176.900	-19.874	
177.000	-25.750	
177.100	-24.105	
177.200	-26.948	
177.300	-1.087	
177.400	-12.947	
177.500	-25.952	
177.600	-9.410	
177.700	-16.378	
177.800	-5.582	
177.900	-20.812	
178.000	-27.568	
178.100	-17.022	
178.200	1.534	
178.300	-12.048	
178.400	-33.230	
178.500	-14.149	
178.600	-16.176	
178.700	-22.657	
178.800	-32.467	
178.900	-7.670	
179.000	-14.778	
179.100	-30.529	
179.200	-17.456	
179.300	-9.725	
179.400	12.874	
179.500	18.489	
179.600	32.457	
179.700	26.608	
179.800	54.311	
179.900	45.719	
180.000	55.367	
180.100	65.644	
180.200	54.269	
180.300	80.237	
180.400	57.806	
180.500	60.696	
180.600	56.567	
180.700	67.099	
180.800	63.474	
180.900	68.219	
181.000	53.303	
181.100	64.241	
181.200	52.033	
181.300	39.385	
181.400	62.760	
181.500	58.680	
181.600	67.558	
181.700	73.475	
181.800	50.287	
181.900	61.328	
182.000	67.869	
182.100	58.518	
182.200	52.877	
182.300	69.061	
182.400	52.237	
182.500	63.406	
182.600	45.321	
182.700	58.118	
182.800	39.494	
182.900	66.882	
183.000	57.877	
183.100	40.547	
183.200	47.720	
183.300	60.760	
183.400	39.049	
183.500	58.600	
183.600	36.485	
183.700	58.740	
183.800	48.028	
183.900	47.904	
184.000	48.133	
184.100	46.197	
184.200	44.927	
184.300	43.019	
184.400	39.451	
184.500	50.046	
184.600	61.385	
184.700	58.369	
184.800	49.266	
184.900	33.607	
185.000	43.234	
185.100	52.373	
185.200	77.015	
185.300	47.657	
185.400	59.735	
185.500	74.624	
185.600	66.110	
185.700	64.505	
185.800	77.429	
185.900	66.508	
186.000	74.995	
186.100	73.344	
186.200	71.362	
186.300	83.819	
186.400	79.273	
186.500	76.295	
186.600	78.598	
186.700	73.219	
186.800	89.377	
186.900	93.019	
187.000	75.503	
187.100	92.170	
187.200	81.297	
187.300	89.451	
187.400	92.062	
187.500	97.597	
187.600	76.132	
187.700	92.301	
187.800	92.033	
187.900	77.433	
188.000	95.874	
188.100	103.297	
188.200	87.599	
188.300	90.491	
188.400	76.185	
188.500	92.141	
188.600	72.022	
188.700	93.749	
188.800	91.870	
188.900	96.208	
189.000	104.356	
189.100	81.939	
189.200	104.977	
189.300	93.030	
189.400	99.784	
189.500	92.115	
189.600	89.169	
189.700	90.632	
189.800	100.884	
189.900	87.900	
190.000	83.440	
190.100	98.996	
190.200	97.393	
190.300	99.640	
190.400	82.243	
190.500	83.769	
190.600	95.313	
190.700	107.788	
190.800	85.549	
190.900	92.685	
191.000	93.050	
191.100	92.585	
191.200	97.144	
191.300	82.448	
191.400	86.794	
191.500	95.949	
191.600	105.308	
191.700	89.517	
191.800	74.967	
191.900	95.459	
192.000	92.972	
192.100	82.677	
192.200	74.109	
192.300	85.257	
192.400	97.256	
192.500	95.345	
192.600	82.387	
192.700	90.978	
192.800	99.100	
192.900	72.249	
193.000	94.807	
193.100	97.912	
193.200	82.184	
193.300	89.160	
193.400	93.703	
193.500	84.717	
193.600	81.925	
193.700	86.455	
193.800	68.835	
193.900	86.782	
194.000	89.607	
194.100	81.792	
194.200	84.849	
194.300	96.378	
194.400	77.666	
194.500	69.787	
194.600	77.146	
194.700	88.307	
194.800	85.808	
194.900	84.599	
195.000	72.418	
195.100	91.218	
195.200	86.708	
195.300	83.913	
195.400	87.062	
195.500	86.533	
195.600	85.477	
195.700	81.123	
195.800	75.020	
195.900	76.847	
196.000	82.554	
196.100	78.136	
196.200	78.557	
196.300	78.093	
196.400	91.596	
196.500	72.533	
196.600	81.765	
196.700	80.065	
196.800	81.029	
196.900	92.318	
197.000	74.027	
197.100	93.795	
197.200	82.973	
197.300	72.895	
197.400	94.775	
197.500	77.861	
197.600	87.545	
197.700	77.251	
197.800	78.557	
197.900	73.224	
198.000	64.865	
198.100	88.206	
198.200	76.771	
198.300	71.009	
198.400	80.713	
198.500	67.200	
198.600	100.389	
198.700	78.750	
198.800	78.380	
198.900	73.889	
199.000	79.588	
199.100	78.183	
199.200	64.812	
199.300	73.122	
199.400	78.405	
199.500	88.890	
199.600	69.101	
199.700	71.140	
199.800	78.216	
199.900	89.991	
200.000	60.187	
200.100	80.817	
200.200	66.958	
200.300	78.342	
200.400	80.804	
200.500	72.440	
200.600	85.718	
200.700	74.167	
200.800	97.240	
200.900	83.694	
201.000	65.250	
201.100	95.222	
201.200	65.273	
201.300	73.574	
201.400	64.490	
201.500	76.149	
201.600	75.674	
201.700	76.078	
201.800	78.496	
201.900	76.144	
202.000	74.294	
202.100	71.053	
202.200	72.457	
202.300	79.725	
202.400	57.929	
202.500	74.209	
202.600	78.418	
202.700	67.880	
202.800	66.763	
202.900	78.351	
203.000	82.063	
203.100	70.365	
203.200	76.957	
203.300	73.565	
203.400	72.971	
203.500	73.411	
203.600	74.312	
203.700	62.548	
203.800	75.794	
203.900	80.241	
204.000	71.081	
204.100	86.084	
204.200	74.451	
204.300	64.331	
204.400	62.868	
204.500	67.984	
204.600	85.945	
204.700	61.053	
204.800	59.886	
204.900	73.984	
205.000	74.945	
205.100	66.089	
205.200	73.563	
205.300	79.907	
205.400	65.662	
205.500	64.816	
205.600	81.327	
205.700	63.522	
205.800	66.075	
205.900	69.990	
206.000	55.926	
206.100	70.348	
206.200	54.847	
206.300	75.728	
206.400	75.374	
206.500	63.892	
206.600	71.052	
206.700	71.434	
206.800	69.001	
206.900	59.270	
207.000	45.289	
207.100	78.221	
207.200	74.939	
207.300	56.717	
207.400	76.086	
207.500	67.060	
207.600	63.535	
207.700	64.356	
207.800	66.018	
207.900	45.497	
208.000	87.510	
208.100	71.529	
208.200	84.812	
208.300	47.004	
208.400	74.808	
208.500	59.728	
208.600	88.488	
208.700	78.551	
208.800	63.079	
208.900	61.742	
209.000	77.967	
209.100	71.453	
209.200	64.381	
209.300	78.329	
209.400	62.452	
209.500	61.525	
209.600	66.817	
209.700	61.617	
209.800	67.546	
209.900	58.615	
210.000	63.425	
210.100	73.054	
210.200	66.067	
210.300	65.253	
210.400	68.045	
210.500	72.630	
210.600	65.615	
210.700	68.552	
210.800	71.424	
210.900	65.523	
211.000	73.151	
211.100	63.588	
211.200	69.310	
211.300	66.010	
211.400	80.545	
211.500	57.499	
211.600	70.120	
211.700	73.029	
211.800	73.355	
211.900	70.574	
212.000	62.295	
212.100	75.456	
212.200	62.956	
212.300	64.718	
212.400	72.789	
212.500	86.881	
212.600	61.293	
212.700	81.901	
212.800	73.033	
212.900	72.838	
213.000	86.614	
213.100	57.992	
213.200	67.650	
213.300	74.097	
213.400	54.432	
213.500	71.044	
213.600	70.405	
213.700	80.275	
213.800	70.638	
213.900	41.492	
214.000	71.318	
214.100	73.554	
214.200	61.691	
214.300	59.327	
214.400	62.585	
214.500	69.408	
214.600	65.764	
214.700	62.525	
214.800	47.328	
214.900	62.448	
215.000	57.549	
215.100	66.451	
215.200	55.984	
215.300	74.244	
215.400	65.615	
215.500	67.053	
215.600	66.852	
215.700	63.356	
215.800	60.177	
215.900	58.675	
216.000	63.812	
216.100	78.733	
216.200	71.509	
216.300	68.158	
216.400	72.419	
216.500	76.658	
216.600	76.415	
216.700	61.631	
216.800	72.738	
216.900	71.226	
217.000	68.828	
217.100	69.010	
217.200	59.193	
217.300	68.038	
217.400	78.586	
217.500	64.170	
217.600	65.762	
217.700	72.930	
217.800	61.808	
217.900	55.434	
218.000	69.277	
218.100	68.790	
218.200	68.901	
218.300	65.880	
218.400	57.729	
218.500	65.216	
218.600	65.327	
218.700	63.274	
218.800	74.701	
218.900	63.828	
219.000	51.943	
219.100	71.701	
219.200	59.895	
219.300	75.181	
219.400	64.799	
219.500	71.556	
219.600	59.978	
219.700	79.331	
219.800	75.066	
219.900	76.115	
220.000	51.405	
220.100	71.101	
220.200	66.722	
220.300	69.154	
220.400	63.908	
220.500	65.362	
220.600	53.518	
220.700	71.822	
220.800	77.146	
220.900	72.065	
221.000	76.666	
221.100	75.519	
221.200	58.466	
221.300	76.157	
221.400	67.093	
221.500	70.029	
221.600	69.492	
221.700	69.163	
221.800	63.813	
221.900	75.000	
222.000	72.506	
222.100	61.263	
222.200	76.493	
222.300	80.517	
222.400	61.335	
222.500	43.696	
222.600	62.377	
222.700	66.167	
222.800	71.231	
222.900	63.186	
223.000	54.491	
223.100	57.043	
223.200	69.159	
223.300	61.032	
223.400	85.335	
223.500	50.353	
223.600	68.660	
223.700	66.827	
223.800	65.587	
223.900	73.266	
224.000	68.280	
224.100	72.174	
224.200	79.586	
224.300	66.224	
224.400	69.375	
224.500	67.611	
224.600	75.032	
224.700	65.808	
224.800	62.283	
224.900	74.092	
225.000	69.481	
225.100	70.356	
225.200	76.110	
225.300	58.262	
225.400	63.880	
225.500	65.309	
225.600	75.474	
225.700	60.192	
225.800	93.649	
225.900	69.063	
226.000	66.302	
226.100	68.289	
226.200	81.396	
226.300	77.352	
226.400	66.420	
226.500	70.835	
226.600	57.900	
226.700	83.048	
226.800	77.211	
226.900	67.813	
227.000	76.667	
227.100	83.605	
227.200	59.256	
227.300	68.025	
227.400	74.651	
227.500	67.633	
227.600	81.312	
227.700	70.516	
227.800	80.589	
227.900	63.167	
228.000	69.873	
228.100	73.516	
228.200	70.642	
228.300	62.863	
228.400	65.250	
228.500	76.411	
228.600	84.888	
228.700	70.659	
228.800	76.153	
228.900	87.626	
229.000	63.450	
229.100	71.322	
229.200	76.717	
229.300	73.250	
229.400	72.977	
229.500	66.763	
229.600	58.277	
229.700	86.182	
229.800	77.855	
229.900	83.355	
230.000	71.264	
230.100	69.988	
230.200	59.144	
230.300	71.333	
230.400	75.822	
230.500	79.751	
230.600	69.734	
230.700	76.884	
230.800	62.646	
230.900	65.734	
231.000	68.390	
231.100	65.566	
231.200	74.599	
231.300	63.882	
231.400	73.123	
231.500	69.835	
231.600	71.884	
231.700	66.741	
231.800	70.648	
231.900	62.517	
232.000	74.915	
232.100	57.742	
232.200	74.839	
232.300	68.444	
232.400	69.489	
232.500	70.657	
232.600	75.110	
232.700	71.716	
232.800	77.462	
232.900	74.182	
233.000	70.760	
233.100	62.592	
233.200	69.655	
233.300	51.735	
233.400	80.409	
233.500	62.768	
233.600	67.149	
233.700	72.286	
233.800	73.926	
233.900	68.091	
234.000	79.619	
234.100	76.001	
234.200	63.730	
234.300	76.063	
234.400	71.210	
234.500	80.085	
234.600	68.263	
234.700	54.422	
234.800	78.728	
234.900	79.384	
235.000	86.128	
235.100	68.635	
235.200	59.232	
235.300	79.178	
235.400	72.705	
235.500	56.156	
235.600	65.187	
235.700	69.804	
235.800	85.667	
235.900	59.357	
236.000	66.757	
236.100	68.858	
236.200	64.923	
236.300	96.889	
236.400	83.739	
236.500	74.050	
236.600	68.084	
236.700	75.651	
236.800	79.042	
236.900	70.025	
237.000	45.543	
237.100	72.638	
237.200	79.889	
237.300	62.257	
237.400	63.416	
237.500	84.323	
237.600	72.413	
237.700	80.277	
237.800	57.976	
237.900	61.889	
238.000	75.340	
238.100	81.047	
238.200	67.019	
238.300	64.261	
238.400	65.751	
238.500	69.427	
238.600	73.438	
238.700	71.872	
238.800	76.153	
238.900	58.160	
239.000	80.357	
239.100	63.464	
239.200	69.896	
239.300	61.498	
239.400	83.646	
239.500	53.836	
239.600	49.712	
239.700	39.280	
239.800	40.980	
239.900	39.491	
240.000	41.005	
240.100	22.235	
240.200	33.049	
240.300	21.361	
240.400	4.830	
240.500	24.044	
240.600	23.110	
240.700	-9.132	
240.800	-12.185	
240.900	-7.889	
241.000	5.369	
241.100	10.406	
241.200	-25.172	
241.300	-8.583	
241.400	-27.072	
241.500	-27.397	
241.600	-28.937	
241.700	-26.123	
241.800	-37.286	
241.900	-24.675	
242.000	-31.023	
242.100	-45.755	
242.200	-57.509	
242.300	-51.534	
242.400	-49.559	
242.500	-64.415	
242.600	-41.511	
242.700	-52.733	
242.800	-45.685	
242.900	-66.724	
243.000	-65.244	
243.100	-56.256	
243.200	-56.228	
243.300	-37.891	
243.400	-54.419	
243.500	-70.013	
243.600	-65.372	
243.700	-46.148	
243.800	-70.153	
243.900	-64.983	
244.000	-59.372	
244.100	-56.463	
244.200	-58.128	
244.300	-56.715	
244.400	-52.497	
244.500	-54.221	
244.600	-69.131	
244.700	-55.426	
244.800	-80.753	
244.900	-58.293	
245.000	-56.508	
245.100	-55.218	
245.200	-48.064	
245.300	-60.101	
245.400	-52.052	
245.500	-45.037	
245.600	-53.150	
245.700	-41.048	
245.800	-61.373	
245.900	-60.597	
246.000	-57.544	
246.100	-63.218	
246.200	-52.625	
246.300	-46.211	
246.400	-57.867	
246.500	-58.766	
246.600	-58.633	
246.700	-46.109	
246.800	-43.681	
246.900	-58.226	
247.000	-46.703	
247.100	-60.144	
247.200	-45.285	
247.300	-50.175	
247.400	-48.190	
247.500	-56.781	
247.600	-35.433	
247.700	-41.991	
247.800	-39.122	
247.900	-52.217	
248.000	-45.213	
248.100	-41.107	
248.200	-51.544	
248.300	-38.810	
248.400	-46.570	
248.500	-48.369	
248.600	-48.201	
248.700	-33.619	
248.800	-42.511	
248.900	-38.070	
249.000	-30.272	
249.100	-40.588	
249.200	-60.468	
249.300	-44.780	
249.400	-41.844	
249.500	-40.782	
249.600	-57.475	
249.700	-42.492	
249.800	-33.913	
249.900	-48.341	
250.000	-32.016	
250.100	-38.858	
250.200	-45.370	
250.300	-44.062	
250.400	-30.327	
250.500	-51.837	
250.600	-43.810	
250.700	-45.079	
250.800	-46.245	
250.900	-50.546	
251.000	-39.043	
251.100	-28.021	
251.200	-33.360	
251.300	-38.643	
251.400	-42.519	
251.500	-36.018	
251.600	-51.183	
251.700	-35.393	
251.800	-51.446	
251.900	-50.853	
252.000	-24.429	
252.100	-40.167	
252.200	-31.734	
252.300	-46.568	
252.400	-26.560	
252.500	-33.574	
252.600	-60.690	
252.700	-58.122	
252.800	-57.073	
252.900	-31.954	
253.000	-38.642	
253.100	-39.952	
253.200	-43.779	
253.300	-37.085	
253.400	-43.619	
253.500	-40.318	
253.600	-43.916	
253.700	-48.746	
253.800	-37.821	
253.900	-48.640	
254.000	-37.511	
254.100	-51.440	
254.200	-42.590	
254.300	-42.505	
254.400	-35.635	
254.500	-31.145	
254.600	-42.743	
254.700	-36.901	
254.800	-47.359	
254.900	-36.828	
255.000	-57.930	
255.100	-28.643	
255.200	-38.879	
255.300	-47.374	
255.400	-41.610	
255.500	-45.343	
255.600	-44.603	
255.700	-40.256	
255.800	-36.630	
255.900	-41.092	
256.000	-46.281	
256.100	-45.027	
256.200	-49.938	
256.300	-36.006	
256.400	-45.255	
256.500	-42.957	
256.600	-37.352	
256.700	-49.785	
256.800	-55.319	
256.900	-40.671	
257.000	-34.444	
257.100	-33.713	
257.200	-34.723	
257.300	-53.276	
257.400	-40.658	
257.500	-47.651	
257.600	-31.403	
257.700	-41.874	
257.800	-53.844	
257.900	-43.045	
258.000	-48.610	
258.100	-46.313	
258.200	-38.834	
258.300	-35.887	
258.400	-45.753	
258.500	-43.734	
258.600	-60.607	
258.700	-42.087	
258.800	-45.232	
258.900	-43.883	
259.000	-46.681	
259.100	-46.312	
259.200	-37.204	
259.300	-43.821	
259.400	-25.352	
259.500	-56.357	
259.600	-43.942	
259.700	-41.760	
259.800	-32.334	
259.900	-47.072	
260.000	-45.254	
260.100	-38.512	
260.200	-43.416	
260.300	-57.056	
260.400	-34.324	
260.500	-49.298	
260.600	-35.233	
260.700	-37.016	
260.800	-56.539	
260.900	-45.017	
261.000	-35.212	
261.100	-32.532	
261.200	-56.938	
261.300	-36.656	
261.400	-34.272	
261.500	-43.702	
261.600	-39.975	
261.700	-37.667	
261.800	-33.857	
261.900	-44.940	
262.000	-42.798	
262.100	-47.999	
262.200	-37.800	
262.300	-44.239	
262.400	-37.486	
262.500	-33.425	
262.600	-32.777	
262.700	-46.991	
262.800	-41.450	
262.900	-47.346	
263.000	-37.171	
263.100	-46.916	
263.200	-32.381	
263.300	-41.010	
263.400	-41.950	
263.500	-61.773	
263.600	-45.255	
263.700	-42.413	
263.800	-43.509	
263.900	-52.123	
264.000	-53.394	
264.100	-49.904	
264.200	-48.503	
264.300	-26.300	
264.400	-39.139	
264.500	-31.571	
264.600	-49.161	
264.700	-38.570	
264.800	-41.620	
264.900	-57.804	
265.000	-36.966	
265.100	-30.761	
265.200	-56.414	
265.300	-47.712	
265.400	-39.848	
265.500	-42.098	
265.600	-32.666	
265.700	-43.650	
265.800	-38.187	
265.900	-50.155	
266.000	-40.234	
266.100	-49.502	
266.200	-33.888	
266.300	-36.257	
266.400	-48.983	
266.500	-43.046	
266.600	-34.319	
266.700	-42.402	
266.800	-22.646	
266.900	-34.231	
267.000	-48.269	
267.100	-33.564	
267.200	-47.460	
267.300	-41.024	
267.400	-41.628	
267.500	-54.211	
267.600	-36.876	
267.700	-32.035	
267.800	-44.690	
267.900	-52.068	
268.000	-33.810	
268.100	-34.809	
268.200	-54.497	
268.300	-45.893	
268.400	-43.025	
268.500	-47.759	
268.600	-43.985	
268.700	-42.126	
268.800	-32.277	
268.900	-48.886	
269.000	-35.175	
269.100	-42.763	
269.200	-37.209	
269.300	-37.379	
269.400	-38.971	
269.500	-40.396	
269.600	-47.933	
269.700	-16.821	
269.800	-35.229	
269.900	-41.604	
270.000	-30.104	
270.100	-42.519	
270.200	-45.722	
270.300	-40.131	
270.400	-40.168	
270.500	-53.959	
270.600	-35.849	
270.700	-48.492	
270.800	-49.374	
270.900	-33.507	
271.000	-26.623	
271.100	-26.404	
271.200	-51.611	
271.300	-46.972	
271.400	-44.004	
271.500	-50.138	
271.600	-48.483	
271.700	-36.156	
271.800	-26.329	
271.900	-25.715	
272.000	-39.729	
272.100	-37.166	
272.200	-30.476	
272.300	-46.595	
272.400	-38.956	
272.500	-34.276	
272.600	-41.384	
272.700	-45.721	
272.800	-52.147	
272.900	-27.856	
273.000	-22.737	
273.100	-33.780	
273.200	-32.384	
273.300	-44.801	
273.400	-32.877	
273.500	-37.079	
273.600	-39.041	
273.700	-37.053	
273.800	-39.665	
273.900	-45.172	
274.000	-37.327	
274.100	-37.662	
274.200	-33.547	
274.300	-25.144	
274.400	-35.873	
274.500	-42.625	
274.600	-35.794	
274.700	-35.230	
274.800	-42.469	
274.900	-54.053	
275.000	-34.294	
275.100	-58.670	
275.200	-28.812	
275.300	-37.898	
275.400	-45.710	
275.500	-33.746	
275.600	-33.472	
275.700	-44.685	
275.800	-32.811	
275.900	-38.783	
276.000	-42.375	
276.100	-24.552	
276.200	-50.283	
276.300	-36.523	
276.400	-42.108	
276.500	-42.451	
276.600	-37.957	
276.700	-22.053	
276.800	-35.415	
276.900	-35.688	
277.000	-40.486	
277.100	-33.832	
277.200	-37.346	
277.300	-37.597	
277.400	-38.111	
277.500	-34.383	
277.600	-43.818	
277.700	-54.428	
277.800	-29.260	
277.900	-48.843	
278.000	-19.212	
278.100	-36.083	
278.200	-44.207	
278.300	-33.770	
278.400	-33.725	
278.500	-24.865	
278.600	-35.415	
278.700	-43.425	
278.800	-42.339	
278.900	-40.599	
279.000	-31.009	
279.100	-37.277	
279.200	-56.538	
279.300	-25.813	
279.400	-41.934	
279.500	-46.245	
279.600	-25.607	
279.700	-49.581	
279.800	-36.679	
279.900	-41.180	
280.000	-37.934	
280.100	-43.407	
280.200	-34.644	
280.300	-32.573	
280.400	-34.974	
280.500	-32.258	
280.600	-45.006	
280.700	-24.051	
280.800	-34.461	
280.900	-32.202	
281.000	-46.328	
281.100	-32.230	
281.200	-28.137	
281.300	-20.263	
281.400	-40.179	
281.500	-44.189	
281.600	-17.953	
281.700	-27.311	
281.800	-56.586	
281.900	-36.215	
282.000	-36.133	
282.100	-27.358	
282.200	-35.178	
282.300	-26.210	
282.400	-40.691	
282.500	-31.217	
282.600	-29.955	
282.700	-35.642	
282.800	-31.341	
282.900	-32.641	
283.000	-39.726	
283.100	-39.120	
283.200	-38.048	
283.300	-42.561	
283.400	-41.779	
283.500	-22.437	
283.600	-35.328	
283.700	-36.231	
283.800	-33.291	
283.900	-47.578	
284.000	-40.373	
284.100	-31.371	
284.200	-32.882	
284.300	-25.864	
284.400	-28.470	
284.500	-32.278	
284.600	-27.358	
284.700	-45.794	
284.800	-25.184	
284.900	-35.911	
285.000	-27.056	
285.100	-24.844	
285.200	-42.202	
285.300	-23.407	
285.400	-48.651	
285.500	-25.676	
285.600	-36.524	
285.700	-35.243	
285.800	-43.922	
285.900	-37.882	
286.000	-35.399	
286.100	-29.247	
286.200	-34.692	
286.300	-43.959	
286.400	-4.943	
286.500	-37.780	
286.600	-31.576	
286.700	-33.683	
286.800	-43.547	
286.900	-42.242	
287.000	-35.840	
287.100	-35.052	
287.200	-32.947	
287.300	-23.754	
287.400	-34.851	
287.500	-50.818	
287.600	-35.881	
287.700	-28.284	
287.800	-50.974	
287.900	-27.775	
288.000	-31.885	
288.100	-34.145	
288.200	-19.746	
288.300	-40.375	
288.400	-21.177	
288.500	-36.424	
288.600	-39.798	
288.700	-37.704	
288.800	-42.580	
288.900	-53.717	
289.000	-27.596	
289.100	-25.454	
289.200	-28.342	
289.300	-25.145	
289.400	-38.410	
289.500	-26.339	
289.600	-33.750	
289.700	-41.758	
289.800	-36.417	
289.900	-30.123	
290.000	-21.019	
290.100	-39.763	
290.200	-40.816	
290.300	-33.046	
290.400	-21.266	
290.500	-28.271	
290.600	-14.940	
290.700	-32.139	
290.800	-28.700	
290.900	-35.938	
291.000	-29.408	
291.100	-36.612	
291.200	-40.546	
291.300	-47.566	
291.400	-30.311	
291.500	-46.408	
291.600	-29.240	
291.700	-34.274	
291.800	-24.958	
291.900	-33.671	
292.000	-44.868	
292.100	-31.650	
292.200	-33.483	
292.300	-18.068	
292.400	-37.871	
292.500	-29.591	
292.600	-28.212	
292.700	-19.282	
292.800	-27.817	
292.900	-34.575	
293.000	-31.791	
293.100	-20.289	
293.200	-37.324	
293.300	-33.358	
293.400	-30.561	
293.500	-26.066	
293.600	-26.028	
293.700	-37.866	
293.800	-24.157	
293.900	-30.642	
294.000	-39.625	
294.100	-13.324	
294.200	-45.321	
294.300	-29.901	
294.400	-26.699	
294.500	-34.644	
294.600	-35.395	
294.700	-27.007	
294.800	-29.766	
294.900	-44.885	
295.000	-27.962	
295.100	-10.613	
295.200	-29.034	
295.300	-33.550	
295.400	-30.475	
295.500	-36.764	
295.600	-20.745	
295.700	-39.854	
295.800	-17.188	
295.900	-8.294	
296.000	-43.444	
296.100	-41.882	
296.200	-14.666	
296.300	-34.959	
296.400	-16.021	
296.500	-34.368	
296.600	-38.805	
296.700	-37.922	
296.800	-29.863	
296.900	-36.964	
297.000	-12.373	
297.100	-32.433	
297.200	-22.899	
297.300	-31.600	
297.400	-34.422	
297.500	-17.544	
297.600	-25.560	
297.700	-28.584	
297.800	-26.929	
297.900	-29.500	
298.000	-25.852	
298.100	-15.564	
298.200	-30.316	
298.300	-26.336	
298.400	-43.118	
298.500	-24.499	
298.600	-31.975	
298.700	-27.422	
298.800	-31.897	
298.900	-20.744	
299.000	-37.273	
299.100	-29.041	
299.200	-21.033	
299.300	-24.433	
299.400	-14.455	
299.500	-35.853	
299.600	-34.097	
299.700	-30.020	
299.800	-27.792	
299.900	-30.902	
300.000	-25.895	
300.100	-15.543	
300.200	-28.544	
300.300	-21.182	
300.400	-25.343	
300.500	-24.299	
300.600	-25.090	
300.700	-25.177	
300.800	-27.447	
300.900	-16.625	
301.000	-27.267	
301.100	-34.443	
301.200	-24.510	
301.300	-29.560	
301.400	-34.744	
301.500	-24.784	
301.600	-21.714	
301.700	-28.397	
301.800	-26.656	
301.900	-36.814	
302.000	-16.206	
302.100	-28.337	
302.200	-24.352	
302.300	-24.193	
302.400	-30.119	
302.500	-20.835	
302.600	-35.428	
302.700	-17.320	
302.800	-15.104	
302.900	-40.538	
303.000	-28.061	
303.100	-25.420	
303.200	-29.656	
303.300	-47.013	
303.400	-22.762	
303.500	-13.783	
303.600	-21.674	
303.700	-29.699	
303.800	-29.354	
303.900	-25.642	
304.000	-23.631	
304.100	-28.857	
304.200	-33.611	
304.300	-21.852	
304.400	-17.798	
304.500	-35.441	
304.600	-31.500	
304.700	-15.694	
304.800	-19.627	
304.900	-30.539	
305.000	-26.915	
305.100	-14.452	
305.200	-35.323	
305.300	-12.794	
305.400	-37.280	
305.500	-16.895	
305.600	-36.005	
305.700	-28.299	
305.800	-28.309	
305.900	-35.587	
306.000	-30.004	
306.100	-41.774	
306.200	-19.567	
306.300	-14.468	
306.400	-23.468	
306.500	-32.172	
306.600	-12.772	
306.700	-40.851	
306.800	-27.968	
306.900	-27.646	
307.000	-25.725	
307.100	-27.159	
307.200	-14.896	
307.300	-16.329	
307.400	-40.696	
307.500	-19.591	
307.600	-24.653	
307.700	-25.484	
307.800	-27.134	
307.900	-28.540	
308.000	-17.227	
308.100	-32.092	
308.200	-22.488	
308.300	-9.832	
308.400	-25.388	
308.500	-24.401	
308.600	-36.763	
308.700	-11.527	
308.800	-28.373	
308.900	-14.016	
309.000	-20.038	
309.100	-20.033	
309.200	-22.003	
309.300	-20.707	
309.400	-28.741	
309.500	-31.685	
309.600	-18.574	
309.700	-34.822	
309.800	-40.954	
309.900	-25.815	
310.000	-25.739	
310.100	-11.813	
310.200	-21.116	
310.300	-16.890	
310.400	-16.862	
310.500	-23.607	
310.600	-16.209	
310.700	-21.854	
310.800	-28.654	
310.900	-16.373	
311.000	-25.034	
311.100	-19.787	
311.200	-18.272	
311.300	-28.076	
311.400	-18.464	
311.500	-21.525	
311.600	-20.574	
311.700	-19.757	
311.800	-27.916	
311.900	-27.062	
312.000	-32.554	
312.100	-24.509	
312.200	-24.516	
312.300	-13.660	
312.400	-22.514	
312.500	-20.755	
312.600	-12.402	
312.700	-25.575	
312.800	-20.595	
312.900	-26.433	
313.000	-22.675	
313.100	-34.068	
313.200	-27.329	
313.300	-1.114	
313.400	-20.014	
313.500	-27.299	
313.600	-23.824	
313.700	-20.521	
313.800	-17.627	
313.900	-27.693	
314.000	-26.684	
314.100	-11.873	
314.200	-27.856	
314.300	-22.815	
314.400	-14.516	
314.500	-31.301	
314.600	-26.525	
314.700	-14.562	
314.800	-18.347	
314.900	-18.815	
315.000	-30.613	
315.100	-12.985	
315.200	-21.505	
315.300	-9.825	
315.400	-16.557	
315.500	-24.841	
315.600	-17.209	
315.700	-25.600	
315.800	-16.348	
315.900	-10.030	
316.000	-16.526	
316.100	-23.018	
316.200	-35.026	
316.300	-27.199	
316.400	-15.343	
316.500	-17.630	
316.600	-30.812	
316.700	-34.143	
316.800	-29.532	
316.900	-13.440	
317.000	-33.791	
317.100	-21.380	
317.200	-16.417	
317.300	-23.732	
317.400	-24.510	
317.500	-36.738	
317.600	-34.726	
317.700	-21.846	
317.800	-16.917	
317.900	-15.084	
318.000	-16.979	
318.100	-11.004	
318.200	-10.147	
318.300	-20.428	
318.400	-19.099	
318.500	-36.322	
318.600	-33.316	
318.700	-6.252	
318.800	-35.194	
318.900	-32.605	
319.000	-17.599	
319.100	-21.400	
319.200	-8.909	
319.300	-33.459	
319.400	-18.728	
319.500	-13.845	
319.600	-42.950	
319.700	-29.223	
319.800	-24.810	
319.900	0.999	
320.000	-20.459	
320.100	-25.693	
320.200	-11.539	
320.300	-17.851	
320.400	-13.958	
320.500	-16.718	
320.600	-22.781	
320.700	-30.430	
320.800	-18.653	
320.900	-25.556	
321.000	-24.301	
321.100	-13.402	
321.200	-34.282	
321.300	-9.124	
321.400	-21.460	
321.500	-21.894	
321.600	-21.769	
321.700	-15.092	
321.800	-34.948	
321.900	-16.785	
322.000	-17.694	
322.100	-25.231	
322.200	-17.087	
322.300	-16.709	
322.400	-19.957	
322.500	-30.586	
322.600	-17.144	
322.700	-37.014	
322.800	-29.112	
322.900	-9.566	
323.000	-18.912	
323.100	-15.183	
323.200	-25.652	
323.300	-14.241	
323.400	-26.823	
323.500	-24.684	
323.600	-21.935	
323.700	-20.612	
323.800	-11.185	
323.900	-37.068	
324.000	-21.537	
324.100	-14.448	
324.200	-20.847	
324.300	-43.929	
324.400	-11.901	
324.500	-9.900	
324.600	-25.419	
324.700	-28.948	
324.800	-26.887	
324.900	-24.980	
325.000	-11.052	
325.100	-17.472	
325.200	-19.103	
325.300	-30.863	
325.400	-9.116	
325.500	-30.717	
325.600	-15.974	
325.700	-17.089	
325.800	-23.175	
325.900	-7.858	
326.000	-30.983	
326.100	-31.303	
326.200	-36.271	
326.300	-23.489	
326.400	-29.381	
326.500	-6.494	
326.600	-24.693	
326.700	-23.548	
326.800	-23.801	
326.900	-14.432	
327.000	-32.238	
327.100	-16.576	
327.200	-23.038	
327.300	-3.408	
327.400	-21.527	
327.500	-28.665	
327.600	-23.513	
327.700	-24.777	
327.800	-15.014	
327.900	-18.691	
328.000	-12.130	
328.100	-26.110	
328.200	-17.212	
328.300	-18.648	
328.400	-16.156	
328.500	-18.445	
328.600	-8.143	
328.700	-23.096	
328.800	-35.635	
328.900	-14.338	
329.000	-17.583	
329.100	-4.335	
329.200	-28.059	
329.300	-28.708	
329.400	-18.836	
329.500	8.738	
329.600	1.417	
329.700	50.316	
329.800	40.797	
329.900	42.735	
330.000	52.007	
330.100	49.008	
330.200	66.682	
330.300	53.844	
330.400	67.457	
330.500	42.714	
330.600	69.393	
330.700	53.394	
330.800	54.474	
330.900	60.996	
331.000	45.866	
331.100	65.663	
331.200	67.586	
331.300	46.617	
331.400	53.556	
331.500	42.668	
331.600	68.818	
331.700	44.928	
331.800	54.309	
331.900	54.619	
332.000	47.164	
332.100	45.008	
332.200	30.410	
332.300	55.717	
332.400	63.256	
332.500	48.713	
332.600	65.762	
332.700	51.011	
332.800	50.940	
332.900	54.781	
333.000	50.965	
333.100	44.516	
333.200	47.418	
333.300	52.144	
333.400	52.411	
333.500	50.718	
333.600	49.086	
333.700	36.305	
333.800	46.151	
333.900	48.029	
334.000	43.952	
334.100	51.474	
334.200	41.509	
334.300	42.809	
334.400	46.307	
334.500	54.314	
334.600	61.310	
334.700	42.329	
334.800	35.261	
334.900	61.815	
335.000	49.727	
335.100	48.424	
335.200	60.141	
335.300	67.802	
335.400	53.096	
335.500	69.339	
335.600	58.353	
335.700	57.594	
335.800	54.607	
335.900	68.177	
336.000	73.612	
336.100	77.225	
336.200	71.731	
336.300	82.915	
336.400	78.991	
336.500	71.616	
336.600	70.653	
336.700	70.273	
336.800	75.353	
336.900	67.998	
337.000	87.926	
337.100	73.579	
337.200	88.699	
337.300	81.711	
337.400	84.916	
337.500	78.057	
337.600	88.924	
337.700	91.725	
337.800	81.542	
337.900	86.591	
338.000	74.279	
338.100	96.229	
338.200	83.630	
338.300	92.280	
338.400	79.412	
338.500	82.948	
338.600	89.015	
338.700	89.560	
338.800	88.672	
338.900	77.127	
339.000	83.815	
339.100	90.516	
339.200	91.032	
339.300	95.914	
339.400	86.013	
339.500	94.161	
339.600	83.770	
339.700	74.176	
339.800	80.204	
339.900	97.286	
340.000	97.277	
340.100	88.415	
340.200	86.911	
340.300	86.639	
340.400	87.692	
340.500	86.859	
340.600	88.321	
340.700	73.883	
340.800	95.095	
340.900	95.148	
341.000	98.005	
341.100	92.492	
341.200	79.755	
341.300	89.480	
341.400	79.405	
341.500	102.905	
341.600	86.696	
341.700	73.175	
341.800	80.009	
341.900	88.105	
342.000	82.080	
342.100	87.550	
342.200	90.839	
342.300	89.308	
342.400	80.099	
342.500	85.320	
342.600	76.386	
342.700	92.138	
342.800	86.366	
342.900	71.856	
343.000	88.617	
343.100	91.918	
343.200	86.990	
343.300	84.659	
343.400	71.465	
343.500	81.319	
343.600	88.201	
343.700	83.980	
343.800	77.658	
343.900	80.498	
344.000	74.154	
344.100	89.589	
344.200	84.589	
344.300	68.907	
344.400	91.269	
344.500	78.180	
344.600	95.770	
344.700	74.786	
344.800	71.566	
344.900	82.108	
345.000	78.776	
345.100	83.654	
345.200	83.266	
345.300	71.163	
345.400	86.034	
345.500	81.818	
345.600	74.464	
345.700	80.778	
345.800	86.279	
345.900	76.152	
346.000	85.881	
346.100	76.608	
346.200	73.878	
346.300	75.219	
346.400	69.878	
346.500	76.428	
346.600	82.628	
346.700	69.778	
346.800	72.283	
346.900	83.685	
347.000	70.492	
347.100	86.737	
347.200	79.743	
347.300	73.982	
347.400	74.748	
347.500	66.446	
347.600	71.755	
347.700	94.560	
347.800	82.395	
347.900	71.269	
348.000	74.083	
348.100	82.946	
348.200	69.043	
348.300	74.220	
348.400	70.133	
348.500	68.248	
348.600	69.706	
348.700	79.690	
348.800	76.916	
348.900	67.981	
349.000	75.906	
349.100	71.601	
349.200	86.121	
349.300	70.573	
349.400	81.089	
349.500	67.998	
349.600	73.302	
349.700	54.202	
349.800	73.975	
349.900	76.773	
350.000	67.938	
350.100	83.056	
350.200	70.302	
350.300	69.386	
350.400	63.591	
350.500	88.586	
350.600	58.611	
350.700	69.851	
350.800	63.417	
350.900	77.046	
351.000	72.368	
351.100	71.734	
351.200	80.069	
351.300	72.754	
351.400	54.134	
351.500	71.274	
351.600	80.819	
351.700	59.899	
351.800	79.968	
351.900	59.929	
352.000	73.825	
352.100	60.371	
352.200	73.959	
352.300	61.310	
352.400	74.769	
352.500	54.203	
352.600	68.785	
352.700	73.288	
352.800	81.013	
352.900	75.446	
353.000	77.838	
353.100	64.942	
353.200	68.668	
353.300	81.320	
353.400	74.220	
353.500	72.247	
353.600	71.586	
353.700	71.523	
353.800	73.001	
353.900	74.819	
354.000	72.307	
354.100	65.237	
354.200	76.731	
354.300	68.973	
354.400	63.773	
354.500	58.986	
354.600	68.420	
354.700	71.869	
354.800	67.028	
354.900	62.390	
355.000	65.318	
355.100	69.921	
355.200	69.437	
355.300	61.461	
355.400	60.670	
355.500	72.590	
355.600	66.627	
355.700	61.310	
355.800	71.829	
355.900	70.354	
356.000	63.531	
356.100	79.379	
356.200	63.653	
356.300	66.030	
356.400	71.985	
356.500	45.332	
356.600	78.159	
356.700	55.821	
356.800	52.691	
356.900	61.360	
357.000	64.839	
357.100	56.616	
357.200	57.613	
357.300	67.803	
357.400	66.501	
357.500	79.665	
357.600	58.549	
357.700	64.734	
357.800	67.908	
357.900	70.499	
358.000	67.315	
358.100	59.086	
358.200	66.207	
358.300	61.821	
358.400	59.535	
358.500	56.428	
358.600	81.537	
358.700	61.943	
358.800	74.549	
358.900	73.059	
359.000	62.324	
359.100	65.181	
359.200	68.336	
359.300	61.670	
359.400	75.008	
359.500	78.704	
359.600	57.044	
359.700	64.252	
359.800	74.173	
359.900	67.435	
360.000	65.725	
360.100	60.551	
360.200	55.777	
360.300	64.175	
360.400	83.547	
360.500	51.783	
360.600	66.644	
360.700	67.772	
360.800	62.303	
360.900	65.365	
361.000	56.536	
361.100	68.175	
361.200	70.850	
361.300	67.389	
361.400	69.807	
361.500	78.212	
361.600	66.888	
361.700	65.069	
361.800	66.498	
361.900	63.926	
362.000	61.415	
362.100	63.766	
362.200	69.447	
362.300	70.097	
362.400	68.090	
362.500	86.047	
362.600	57.565	
362.700	62.953	
362.800	65.713	
362.900	59.973	
363.000	63.599	
363.100	64.324	
363.200	70.284	
363.300	54.361	
363.400	70.947	
363.500	74.679	
363.600	54.242	
363.700	70.619	
363.800	78.801	
363.900	61.613	
364.000	58.706	
364.100	67.246	
364.200	74.002	
364.300	73.908	
364.400	50.287	
364.500	70.067	
364.600	63.837	
364.700	68.560	
364.800	74.257	
364.900	71.844	
365.000	73.492	
365.100	48.312	
365.200	75.574	
365.300	69.106	
365.400	58.685	
365.500	58.353	
365.600	70.979	
365.700	61.397	
365.800	48.680	
365.900	73.935	
366.000	60.453	
366.100	59.768	
366.200	66.107	
366.300	60.332	
366.400	75.585	
366.500	58.854	
366.600	60.576	
366.700	56.341	
366.800	68.464	
366.900	73.397	
367.000	49.991	
367.100	74.320	
367.200	70.691	
367.300	72.869	
367.400	64.541	
367.500	59.393	
367.600	56.913	
367.700	69.000	
367.800	51.661	
367.900	73.434	
368.000	71.185	
368.100	65.342	
368.200	67.384	
368.300	65.003	
368.400	76.971	
368.500	56.458	
368.600	65.642	
368.700	54.192	
368.800	66.624	
368.900	62.722	
369.000	73.920	
369.100	68.613	
369.200	60.780	
369.300	64.628	
369.400	64.426	
369.500	70.006	
369.600	72.786	
369.700	63.627	
369.800	59.783	
369.900	64.011	
370.000	56.085	
370.100	69.072	
370.200	68.741	
370.300	50.629	
370.400	76.639	
370.500	66.964	
370.600	59.540	
370.700	67.451	
370.800	74.422	
370.900	61.119	
371.000	71.131	
371.100	70.572	
371.200	64.268	
371.300	67.352	
371.400	68.420	
371.500	64.998	
371.600	62.727	
371.700	70.610	
371.800	68.055	
371.900	55.621	
372.000	65.682	
372.100	75.579	
372.200	76.492	
372.300	61.346	
372.400	75.160	
372.500	46.296	
372.600	94.113	
372.700	68.871	
372.800	68.785	
372.900	72.584	
373.000	65.920	
373.100	81.462	
373.200	46.156	
373.300	66.524	
373.400	71.365	
373.500	70.689	
373.600	58.993	
373.700	66.724	
373.800	61.946	
373.900	63.234	
374.000	76.660	
374.100	70.478	
374.200	70.157	
374.300	68.442	
374.400	69.088	
374.500	72.511	
374.600	73.663	
374.700	75.637	
374.800	74.907	
374.900	64.350	
375.000	65.429	
375.100	71.586	
375.200	77.574	
375.300	44.813	
375.400	74.948	
375.500	63.623	
375.600	64.827	
375.700	90.664	
375.800	69.310	
375.900	64.580	
376.000	73.747	
376.100	60.582	
376.200	61.633	
376.300	77.793	
376.400	69.703	
376.500	73.858	
376.600	70.628	
376.700	73.029	
376.800	78.135	
376.900	61.193	
377.000	74.296	
377.100	59.126	
377.200	62.371	
377.300	80.022	
377.400	67.476	
377.500	64.091	
377.600	71.295	
377.700	66.224	
377.800	77.417	
377.900	70.830	
378.000	81.935	
378.100	71.277	
378.200	69.117	
378.300	70.623	
378.400	77.083	
378.500	70.737	
378.600	74.685	
378.700	71.523	
378.800	72.976	
378.900	72.054	
379.000	58.960	
379.100	57.923	
379.200	85.721	
379.300	63.675	
379.400	68.748	
379.500	88.612	
379.600	72.098	
379.700	65.634	
379.800	64.793	
379.900	63.540	
380.000	66.414	
380.100	58.613	
380.200	81.601	
380.300	75.709	
380.400	72.933	
380.500	72.904	
380.600	73.095	
380.700	59.874	
380.800	64.057	
380.900	77.786	
381.000	74.246	
381.100	67.679	
381.200	64.255	
381.300	73.354	
381.400	68.894	
381.500	69.198	
381.600	72.134	
381.700	61.431	
381.800	79.714	
381.900	77.438	
382.000	55.747	
382.100	61.090	
382.200	75.644	
382.300	64.926	
382.400	72.827	
382.500	66.780	
382.600	71.420	
382.700	73.486	
382.800	58.592	
382.900	67.267	
383.000	75.737	
383.100	78.202	
383.200	62.162	
383.300	80.315	
383.400	59.197	
383.500	82.329	
383.600	60.049	
383.700	72.624	
383.800	52.239	
383.900	62.825	
384.000	67.335	
384.100	71.879	
384.200	70.107	
384.300	77.396	
384.400	78.529	
384.500	69.768	
384.600	60.325	
384.700	67.809	
384.800	67.061	
384.900	76.983	
385.000	65.988	
385.100	78.104	
385.200	63.912	
385.300	71.656	
385.400	63.384	
385.500	74.670	
385.600	66.568	
385.700	62.894	
385.800	72.447	
385.900	63.812	
386.000	75.027	
386.100	66.942	
386.200	55.352	
386.300	68.339	
386.400	78.065	
386.500	53.927	
386.600	71.406	
386.700	66.700	
386.800	74.016	
386.900	60.973	
387.000	65.503	
387.100	86.119	
387.200	59.335	
387.300	70.511	
387.400	68.489	
387.500	67.062	
387.600	72.714	
387.700	74.505	
387.800	68.221	
387.900	67.090	
388.000	65.588	
388.100	71.500	
388.200	71.880	
388.300	65.805	
388.400	48.773	
388.500	77.292	
388.600	78.402	
388.700	60.769	
388.800	71.971	
388.900	67.734	
389.000	53.338	
389.100	83.915	
389.200	66.401	
389.300	61.026	
389.400	74.140	
389.500	69.524	
389.600	42.586	
389.700	37.513	
389.800	58.946	
389.900	35.780	
390.000	54.133	
390.100	30.576	
390.200	33.798	
390.300	10.790	
390.400	33.496	
390.500	11.456	
390.600	25.696	
390.700	16.106	
390.800	6.482	
390.900	-3.753	
391.000	-15.989	
391.100	3.870	
391.200	-11.440	
391.300	-0.507	
391.400	-25.250	
391.500	-12.156	
391.600	-25.467	
391.700	-16.750	
391.800	-22.694	
391.900	-40.436	
392.000	-29.956	
392.100	-43.507	
392.200	-30.457	
392.300	-39.488	
392.400	-40.777	
392.500	-43.987	
392.600	-52.350	
392.700	-54.909	
392.800	-40.480	
392.900	-55.101	
393.000	-52.345	
393.100	-58.877	
393.200	-46.297	
393.300	-54.638	
393.400	-47.698	
393.500	-70.580	
393.600	-47.341	
393.700	-70.999	
393.800	-37.110	
393.900	-64.802	
394.000	-50.082	
394.100	-48.611	
394.200	-39.905	
394.300	-52.541	
394.400	-62.368	
394.500	-47.218	
394.600	-57.842	
394.700	-59.760	
394.800	-50.065	
394.900	-68.513	
395.000	-49.051	
395.100	-46.000	
395.200	-58.592	
395.300	-68.715	
395.400	-51.636	
395.500	-52.947	
395.600	-39.321	
395.700	-58.137	
395.800	-51.843	
395.900	-52.628	
396.000	-39.066	
396.100	-53.975	
396.200	-51.035	
396.300	-44.917	
396.400	-55.897	
396.500	-41.963	
396.600	-36.303	
396.700	-49.377	
396.800	-48.489	
396.900	-49.010	
397.000	-45.805	
397.100	-54.592	
397.200	-46.720	
397.300	-60.783	
397.400	-37.847	
397.500	-39.185	
397.600	-53.976	
397.700	-31.079	
397.800	-38.190	
397.900	-59.650	
398.000	-33.484	
398.100	-54.624	
398.200	-56.150	
398.300	-47.404	
398.400	-44.648	
398.500	-40.514	
398.600	-41.745	
398.700	-41.235	
398.800	-42.550	
398.900	-41.754	
399.000	-49.683	
399.100	-59.618	
399.200	-36.955	
399.300	-30.674	
399.400	-53.352	
399.500	-58.796	
399.600	-29.258	
399.700	-45.869	
399.800	-39.409	
399.900	-51.706	
400.000	-52.096	
400.100	-40.007	
400.200	-54.514	
400.300	-50.798	
400.400	-39.521	
400.500	-43.920	
400.600	-49.714	
400.700	-63.235	
400.800	-47.857	
400.900	-41.646	
401.000	-38.948	
401.100	-56.474	
401.200	-39.597	
401.300	-52.295	
401.400	-51.890	
401.500	-48.320	
401.600	-48.921	
401.700	-42.948	
401.800	-60.966	
401.900	-45.423	
402.000	-38.641	
402.100	-37.555	
402.200	-48.815	
402.300	-47.680	
402.400	-46.252	
402.500	-40.640	
402.600	-50.712	
402.700	-36.599	
402.800	-44.055	
402.900	-54.139	
403.000	-44.740	
403.100	-52.605	
403.200	-46.495	
403.300	-41.180	
403.400	-44.309	
403.500	-52.788	
403.600	-48.133	
403.700	-38.994	
403.800	-55.423	
403.900	-52.761	
404.000	-46.105	
404.100	-46.045	
404.200	-37.587	
404.300	-45.241	
404.400	-37.126	
404.500	-60.010	
404.600	-47.674	
404.700	-51.518	
404.800	-49.668	
404.900	-37.827	
405.000	-62.317	
405.100	-48.187	
405.200	-46.309	
405.300	-40.916	
405.400	-42.462	
405.500	-51.508	
405.600	-36.441	
405.700	-54.438	
405.800	-33.338	
405.900	-43.455	
406.000	-47.690	
406.100	-51.454	
406.200	-38.924	
406.300	-52.405	
406.400	-41.451	
406.500	-45.328	
406.600	-47.713	
406.700	-50.577	
406.800	-45.757	
406.900	-48.252	
407.000	-49.247	
407.100	-50.325	
407.200	-50.815	
407.300	-45.830	
407.400	-57.120	
407.500	-40.112	
407.600	-55.294	
407.700	-69.631	
407.800	-48.483	
407.900	-53.849	
408.000	-41.763	
408.100	-60.615	
408.200	-46.590	
408.300	-36.225	
408.400	-44.931	
408.500	-48.606	
408.600	-31.298	
408.700	-57.441	
408.800	-58.372	
408.900	-49.029	
409.000	-53.644	
409.100	-53.544	
409.200	-45.797	
409.300	-45.673	
409.400	-61.303	
409.500	-69.936	
409.600	-53.108	
409.700	-39.082	
409.800	-34.207	
409.900	-52.104	
410.000	-57.824	
410.100	-44.294	
410.200	-53.029	
410.300	-44.856	
410.400	-48.076	
410.500	-48.902	
410.600	-47.877	
410.700	-48.683	
410.800	-42.285	
410.900	-45.187	
411.000	-71.057	
411.100	-48.528	
411.200	-29.405	
411.300	-46.151	
411.400	-44.029	
411.500	-44.033	
411.600	-42.494	
411.700	-53.166	
411.800	-56.721	
411.900	-64.123	
412.000	-39.409	
412.100	-47.971	
412.200	-57.726	
412.300	-41.899	
412.400	-31.142	
412.500	-61.493	
412.600	-46.942	
412.700	-47.554	
412.800	-25.134	
412.900	-52.284	
413.000	-47.127	
413.100	-42.528	
413.200	-41.037	
413.300	-42.520	
413.400	-43.837	
413.500	-49.505	
413.600	-33.029	
413.700	-49.887	
413.800	-24.334	
413.900	-67.624	
414.000	-60.968	
414.100	-40.052	
414.200	-45.839	
414.300	-51.011	
414.400	-48.795	
414.500	-29.410	
414.600	-50.575	
414.700	-48.362	
414.800	-55.742	
414.900	-38.854	
415.000	-32.883	
415.100	-41.110	
415.200	-53.042	
415.300	-41.624	
415.400	-40.331	
415.500	-43.361	
415.600	-42.025	
415.700	-47.624	
415.800	-48.883	
415.900	-45.197	
416.000	-47.779	
416.100	-47.934	
416.200	-53.676	
416.300	-51.498	
416.400	-39.309	
416.500	-38.100	
416.600	-52.821	
416.700	-49.134	
416.800	-48.602	
416.900	-35.971	
417.000	-61.032	
417.100	-30.825	
417.200	-42.945	
417.300	-34.981	
417.400	-45.415	
417.500	-37.034	
417.600	-53.959	
417.700	-36.306	
417.800	-51.205	
417.900	-49.409	
418.000	-42.440	
418.100	-49.731	
418.200	-44.411	
418.300	-42.455	
418.400	-27.801	
418.500	-53.164	
418.600	-55.908	
418.700	-42.299	
418.800	-40.345	
418.900	-63.521	
419.000	-38.125	
419.100	-57.157	
419.200	-34.250	
419.300	-45.574	
419.400	-31.339	
419.500	-40.069	
419.600	-53.131	
419.700	-45.021	
419.800	-53.028	
419.900	-38.517	
420.000	-42.464	
420.100	-43.204	
420.200	-41.669	
420.300	-35.736	
420.400	-27.901	
420.500	-56.635	
420.600	-28.372	
420.700	-48.060	
420.800	-36.866	
420.900	-58.870	
421.000	-46.763	
421.100	-34.058	
421.200	-52.734	
421.300	-27.470	
421.400	-54.910	
421.500	-56.975	
421.600	-25.623	
421.700	-37.309	
421.800	-43.309	
421.900	-48.391	
422.000	-36.077	
422.100	-40.909	
422.200	-31.844	
422.300	-50.206	
422.400	-27.212	
422.500	-53.321	
422.600	-34.907	
422.700	-37.391	
422.800	-46.561	
422.900	-29.301	
423.000	-56.138	
423.100	-49.969	
423.200	-40.390	
423.300	-36.844	
423.400	-42.098	
423.500	-56.276	
423.600	-32.064	
423.700	-51.963	
423.800	-41.461	
423.900	-41.283	
424.000	-37.788	
424.100	-34.819	
424.200	-56.127	
424.300	-43.666	
424.400	-47.037	
424.500	-37.920	
424.600	-56.166	
424.700	-34.933	
424.800	-42.059	
424.900	-50.757	
425.000	-31.996	
425.100	-41.962	
425.200	-41.884	
425.300	-50.460	
425.400	-44.618	
425.500	-38.230	
425.600	-31.752	
425.700	-32.664	
425.800	-42.528	
425.900	-40.242	
426.000	-38.905	
426.100	-45.711	
426.200	-37.833	
426.300	-46.197	
426.400	-45.816	
426.500	-34.338	
426.600	-44.118	
426.700	-49.417	
426.800	-36.534	
426.900	-40.210	
427.000	-43.947	
427.100	-39.455	
427.200	-49.908	
427.300	-50.593	
427.400	-32.133	
427.500	-31.438	
427.600	-57.854	
427.700	-50.132	
427.800	-40.723	
427.900	-41.909	
428.000	-54.884	
428.100	-18.302	
428.200	-36.609	
428.300	-33.909	
428.400	-38.361	
428.500	-40.789	
428.600	-49.703	
428.700	-32.975	
428.800	-44.658	
428.900	-44.249	
429.000	-36.857	
429.100	-28.178	
429.200	-40.310	
429.300	-38.646	
429.400	-43.040	
429.500	-42.112	
429.600	-43.695	
429.700	-57.247	
429.800	-43.791	
429.900	-38.384	
430.000	-31.994	
430.100	-32.899	
430.200	-34.096	
430.300	-44.051	
430.400	-58.722	
430.500	-42.828	
430.600	-34.324	
430.700	-43.163	
430.800	-42.299	
430.900	-30.905	
431.000	-27.769	
431.100	-41.754	
431.200	-35.393	
431.300	-32.971	
431.400	-35.297	
431.500	-37.775	
431.600	-39.169	
431.700	-42.919	
431.800	-38.242	
431.900	-44.905	
432.000	-48.052	
432.100	-46.678	
432.200	-17.911	
432.300	-41.873	
432.400	-30.200	
432.500	-37.519	
432.600	-35.380	
432.700	-43.155	
432.800	-35.984	
432.900	-32.963	
433.000	-37.846	
433.100	-36.557	
433.200	-43.147	
433.300	-36.011	
433.400	-20.671	
433.500	-43.379	
433.600	-45.424	
433.700	-39.794	
433.800	-31.811	
433.900	-34.895	
434.000	-37.522	
434.100	-44.324	
434.200	-35.782	
434.300	-34.866	
434.400	-29.742	
434.500	-35.731	
434.600	-38.101	
434.700	-27.373	
434.800	-42.486	
434.900	-27.376	
435.000	-35.254	
435.100	-28.660	
435.200	-47.075	
435.300	-21.554	
435.400	-43.052	
435.500	-49.884	
435.600	-17.039	
435.700	-34.918	
435.800	-34.275	
435.900	-40.842	
436.000	-39.796	
436.100	-22.703	
436.200	-31.911	
436.300	-25.736	
436.400	-38.285	
436.500	-55.455	
436.600	-46.210	
436.700	-7.367	
436.800	-35.973	
436.900	-17.833	
437.000	-36.487	
437.100	-27.531	
437.200	-42.326	
437.300	-31.671	
437.400	-34.068	
437.500	-40.738	
437.600	-23.864	
437.700	-14.518	
437.800	-23.914	
437.900	-46.295	
438.000	-25.793	
438.100	-45.939	
438.200	-32.853	
438.300	-36.304	
438.400	-32.590	
438.500	-25.501	
438.600	-26.260	
438.700	-27.318	
438.800	-32.387	
438.900	-39.205	
439.000	-40.828	
439.100	-23.960	
439.200	-33.550	
439.300	-30.435	
439.400	-40.992	
439.500	-18.757	
439.600	-25.275	
439.700	-41.469	
439.800	-42.080	
439.900	-48.634	
440.000	-30.189	
440.100	-22.066	
440.200	-35.056	
440.300	-29.830	
440.400	-29.405	
440.500	-30.018	
440.600	-31.605	
440.700	-43.227	
440.800	-11.437	
440.900	-20.177	
441.000	-29.863	
441.100	-41.868	
441.200	-42.334	
441.300	-30.817	
441.400	-26.303	
441.500	-26.066	
441.600	-32.037	
441.700	-32.101	
441.800	-34.647	
441.900	-43.667	
442.000	-28.899	
442.100	-29.154	
442.200	-35.810	
442.300	-30.972	
442.400	-23.755	
442.500	-34.927	
442.600	-31.531	
442.700	-31.723	
442.800	-26.650	
442.900	-36.750	
443.000	-35.036	
443.100	-36.343	
443.200	-36.406	
443.300	-27.912	
443.400	-24.374	
443.500	-24.799	
443.600	-40.822	
443.700	-18.320	
443.800	-20.307	
443.900	-26.966	
444.000	-21.573	
444.100	-36.865	
444.200	-29.915	
444.300	-21.331	
444.400	-34.303	
444.500	-38.190	
444.600	-23.845	
444.700	-24.787	
444.800	-34.551	
444.900	-27.904	
445.000	-28.344	
445.100	-40.081	
445.200	-30.824	
445.300	-20.721	
445.400	-34.646	
445.500	-26.806	
445.600	-30.332	
445.700	-34.193	
445.800	-35.636	
445.900	-49.389	
446.000	-28.353	
446.100	-36.379	
446.200	-33.379	
446.300	-19.679	
446.400	-34.378	
446.500	-22.958	
446.600	-32.500	
446.700	-22.807	
446.800	-30.328	
446.900	-30.596	
447.000	-34.712	
447.100	-40.314	
447.200	-28.223	
447.300	-17.563	
447.400	-35.369	
447.500	-31.203	
447.600	-30.177	
447.700	-25.652	
447.800	-40.548	
447.900	-11.395	
448.000	-39.940	
448.100	-30.728	
448.200	-35.287	
448.300	-21.847	
448.400	-32.050	
448.500	-29.400	
448.600	-29.476	
448.700	-25.495	
448.800	-25.745	
448.900	-31.759	
449.000	-18.640	
449.100	-35.164	
449.200	-28.915	
449.300	-29.306	
449.400	-28.051	
449.500	-20.796	
449.600	-42.686	
449.700	-38.562	
449.800	-41.223	
449.900	-32.230	
450.000	-20.079	
450.100	-26.519	
450.200	-36.412	
450.300	-34.697	
450.400	-29.203	
450.500	-34.773	
450.600	-17.721	
450.700	-28.924	
450.800	-40.104	
450.900	-32.559	
451.000	-40.650	
451.100	-19.780	
451.200	-34.787	
451.300	-35.160	
451.400	-35.342	
451.500	-17.865	
451.600	-31.251	
451.700	-22.772	
451.800	-32.645	
451.900	-20.601	
452.000	-20.911	
452.100	-31.321	
452.200	-16.432	
452.300	-30.189	
452.400	-28.878	
452.500	-27.397	
452.600	-20.336	
452.700	-33.154	
452.800	-29.056	
452.900	-24.856	
453.000	-46.197	
453.100	-13.976	
453.200	-29.114	
453.300	-34.828	
453.400	-20.555	
453.500	-38.594	
453.600	-35.114	
453.700	-22.141	
453.800	-30.462	
453.900	-28.262	
454.000	-47.401	
454.100	-48.370	
454.200	-30.070	
454.300	-19.862	
454.400	-14.548	
454.500	-31.751	
454.600	-7.133	
454.700	-24.757	
454.800	-23.790	
454.900	-25.000	
455.000	-38.703	
455.100	-6.868	
455.200	-38.554	
455.300	-32.234	
455.400	-42.529	
455.500	-17.170	
455.600	-14.855	
455.700	-20.867	
455.800	-19.523	
455.900	-19.199	
456.000	-37.979	
456.100	-27.798	
456.200	-28.094	
456.300	-28.318	
456.400	-17.344	
456.500	-29.573	
456.600	-27.305	
456.700	-36.962	
456.800	-23.275	
456.900	-28.753	
457.000	-35.821	
457.100	-17.533	
457.200	-41.451	
457.300	-38.869	
457.400	-15.593	
457.500	-20.878	
457.600	-31.897	
457.700	-24.894	
457.800	-24.744	
457.900	-25.565	
458.000	-26.503	
458.100	-26.276	
458.200	-47.511	
458.300	-22.045	
458.400	-20.965	
458.500	-36.652	
458.600	-22.114	
458.700	-40.146	
458.800	-15.405	
458.900	-29.761	
459.000	-24.181	
459.100	-16.292	
459.200	-27.372	
459.300	-23.151	
459.400	-13.217	
459.500	-27.741	
459.600	-37.935	
459.700	-29.716	
459.800	-17.791	
459.900	-40.739	
460.000	-20.661	
460.100	-21.740	
460.200	-23.730	
460.300	-20.704	
460.400	-24.557	
460.500	-19.511	
460.600	-26.501	
460.700	-38.280	
460.800	-31.836	
460.900	-24.873	
461.000	-33.596	
461.100	-20.786	
461.200	-22.715	
461.300	-16.412	
461.400	-12.374	
461.500	-16.364	
461.600	-10.349	
461.700	-33.374	
461.800	-28.211	
461.900	-45.531	
462.000	-12.382	
462.100	-19.373	
462.200	-32.704	
462.300	-20.038	
462.400	-21.154	
462.500	-21.483	
462.600	-37.275	
462.700	-27.801	
462.800	-13.179	
462.900	-23.628	
463.000	-26.937	
463.100	-17.622	
463.200	-31.230	
463.300	-18.280	
463.400	-26.788	
463.500	-23.417	
463.600	-13.133	
463.700	-37.977	
463.800	-18.271	
463.900	-19.379	
464.000	-23.972	
464.100	-24.593	
464.200	-37.856	
464.300	-30.748	
464.400	-25.699	
464.500	-27.557	
464.600	-25.438	
464.700	-33.040	
464.800	-16.199	
464.900	-25.036	
465.000	-36.227	
465.100	-23.845	
465.200	-39.734	
465.300	-38.346	
465.400	-15.982	
465.500	-26.755	
465.600	-15.484	
465.700	-27.849	
465.800	-22.253	
465.900	-29.137	
466.000	-27.682	
466.100	-11.712	
466.200	-25.292	
466.300	-23.348	
466.400	-30.817	
466.500	-29.537	
466.600	-30.717	
466.700	-23.146	
466.800	-25.144	
466.900	-9.468	
467.000	-26.311	
467.100	-17.812	
467.200	-33.006	
467.300	-10.727	
467.400	-34.426	
467.500	-21.165	
467.600	-23.770	
467.700	-41.522	
467.800	-19.883	
467.900	-14.157	
468.000	-21.482	
468.100	-37.765	
468.200	-26.307	
468.300	-17.674	
468.400	-41.988	
468.500	-32.872	
468.600	-7.932	
468.700	-27.980	
468.800	-24.380	
468.900	-14.851	
469.000	-36.481	
469.100	-25.407	
469.200	-17.612	
469.300	-29.835	
469.400	-29.076	
469.500	-39.403	
469.600	-34.716	
469.700	-17.661	
469.800	-14.560	
469.900	-30.085	
470.000	-20.644	
470.100	-17.104	
470.200	-26.341	
470.300	-0.027	
470.400	-41.954	
470.500	-24.975	
470.600	-16.888	
470.700	-25.385	
470.800	-20.843	
470.900	-31.650	
471.000	-35.391	
471.100	-15.376	
471.200	-24.904	
471.300	-13.359	
471.400	-40.930	
471.500	-28.497	
471.600	-38.370	
471.700	-18.785	
471.800	-19.934	
471.900	-36.481	
472.000	-28.718	
472.100	-15.800	
472.200	-18.998	
472.300	-16.264	
472.400	-22.272	
472.500	-13.808	
472.600	-36.441	
472.700	-29.681	
472.800	-22.241	
472.900	-23.596	
473.000	-28.789	
473.100	-12.146	
473.200	-26.775	
473.300	-15.786	
473.400	-32.942	
473.500	-14.046	
473.600	-27.221	
473.700	-27.990	
473.800	-20.677	
473.900	-12.758	
474.000	-25.688	
474.100	-21.511	
474.200	-20.887	
474.300	-25.903	
474.400	-28.246	
474.500	-25.511	
474.600	-15.678	
474.700	-24.581	
474.800	-23.975	
474.900	-33.999	
475.000	-24.282	
475.100	-9.082	
475.200	-37.606	
475.300	-15.911	
475.400	-11.229	
475.500	-32.044	
475.600	-30.575	
475.700	-26.080	
475.800	-25.444	
475.900	-33.234	
476.000	-25.212	
476.100	-22.070	
476.200	-20.582	
476.300	-24.933	
476.400	-18.576	
476.500	-37.280	
476.600	-10.887	
476.700	-19.500	
476.800	-18.201	
476.900	-26.905	
477.000	-15.420	
477.100	-35.839	
477.200	-25.802	
477.300	-18.623	
477.400	-31.288	
477.500	-16.875	
477.600	-14.322	
477.700	-18.214	
477.800	-22.387	
477.900	-13.545	
478.000	-24.039	
478.100	-21.741	
478.200	-12.662	
478.300	-11.375	
478.400	-33.255	
478.500	-28.158	
478.600	-21.843	
478.700	-19.238	
478.800	-22.764	
478.900	-31.487	
479.000	-21.338	
479.100	-20.862	
479.200	-32.904	
479.300	-9.432	
479.400	-12.583	
479.500	-0.987	
479.600	16.138	
479.700	13.174	
479.800	30.540	
479.900	31.906	
480.000	60.597	
480.100	42.741	
480.200	57.710	
480.300	30.706	
480.400	66.291	
480.500	65.056	
480.600	58.236	
480.700	43.810	
480.800	60.759	
480.900	58.215	
481.000	48.241	
481.100	59.207	
481.200	55.755	
481.300	52.312	
481.400	46.960	
481.500	68.223	
481.600	60.313	
481.700	44.287	
481.800	44.931	
481.900	51.053	
482.000	49.189	
482.100	55.359	
482.200	24.019	
482.300	40.493	
482.400	60.225	
482.500	38.799	
482.600	56.528	
482.700	44.920	
482.800	46.903	
482.900	47.034	
483.000	32.296	
483.100	40.453	
483.200	38.047	
483.300	35.379	
483.400	34.841	
483.500	39.405	
483.600	39.762	
483.700	48.576	
483.800	49.579	
483.900	40.803	
484.000	34.951	
484.100	51.636	
484.200	56.543	
484.300	44.680	
484.400	44.569	
484.500	46.486	
484.600	48.541	
484.700	31.467	
484.800	56.137	
484.900	53.126	
485.000	57.428	
485.100	60.819	
485.200	50.472	
485.300	49.090	
485.400	66.926	
485.500	50.504	
485.600	50.008	
485.700	66.176	
485.800	64.748	
485.900	59.982	
486.000	72.896	
486.100	70.341	
486.200	78.783	
486.300	50.815	
486.400	65.363	
486.500	63.947	
486.600	74.927	
486.700	68.215	
486.800	76.360	
486.900	82.534	
487.000	87.575	
487.100	76.420	
487.200	94.761	
487.300	76.801	
487.400	74.909	
487.500	77.802	
487.600	80.981	
487.700	73.276	
487.800	70.864	
487.900	80.491	
488.000	70.833	
488.100	87.290	
488.200	84.141	
488.300	74.260	
488.400	99.882	
488.500	72.890	
488.600	82.653	
488.700	79.942	
488.800	86.106	
488.900	78.050	
489.000	84.694	
489.100	86.897	
489.200	80.690	
489.300	75.369	
489.400	64.743	
489.500	90.337	
489.600	66.170	
489.700	78.311	
489.800	91.348	
489.900	74.516	
490.000	78.852	
490.100	88.110	
490.200	77.707	
490.300	74.381	
490.400	82.147	
490.500	81.339	
490.600	84.449	
490.700	77.731	
490.800	81.771	
490.900	72.772	
491.000	83.620	
491.100	85.650	
491.200	82.466	
491.300	92.074	
491.400	67.258	
491.500	88.678	
491.600	88.466	
491.700	93.917	
491.800	81.772	
491.900	63.764	
492.000	79.478	
492.100	70.554	
492.200	69.055	
492.300	85.824	
492.400	77.148	
492.500	73.666	
492.600	78.846	
492.700	73.860	
492.800	79.686	
492.900	67.812	
493.000	80.160	
493.100	65.256	
493.200	76.451	
493.300	70.410	
493.400	86.257	
493.500	78.282	
493.600	75.794	
493.700	87.710	
493.800	80.080	
493.900	73.111	
494.000	68.696	
494.100	77.052	
494.200	74.767	
494.300	78.769	
494.400	74.041	
494.500	73.112	
494.600	64.564	
494.700	79.016	
494.800	80.827	
494.900	97.360	
495.000	72.889	
495.100	79.371	
495.200	67.004	
495.300	75.298	
495.400	69.452	
495.500	91.007	
495.600	74.815	
495.700	56.275	
495.800	79.024	
495.900	67.861	
496.000	81.166	
496.100	75.502	
496.200	76.480	
496.300	66.612	
496.400	78.780	
496.500	66.297	
496.600	85.185	
496.700	60.900	
496.800	64.421	
496.900	70.249	
497.000	93.004	
497.100	69.669	
497.200	76.499	
497.300	72.301	
497.400	68.261	
497.500	67.220	
497.600	72.522	
497.700	73.558	
497.800	60.812	
497.900	78.695	
498.000	76.515	
498.100	72.747	
498.200	81.052	
498.300	63.580	
498.400	70.720	
498.500	69.797	
498.600	67.057	
498.700	61.726	
498.800	66.035	
498.900	81.706	
499.000	85.626	
499.100	72.513	
499.200	62.103	
499.300	71.549	
499.400	79.049	
499.500	76.346	
499.600	73.808	
499.700	71.256	
499.800	70.827	
499.900	79.431	
500.000	72.248	
500.100	81.548	
500.200	73.959	
500.300	50.823	
500.400	76.388	
500.500	61.649	
500.600	75.046	
500.700	64.638	
500.800	85.456	
500.900	61.108	
501.000	74.840	
501.100	66.426	
501.200	65.631	
501.300	77.959	
501.400	62.077	
501.500	71.140	
501.600	64.677	
501.700	72.164	
501.800	62.875	
501.900	51.573	
502.000	77.363	
502.100	67.344	
502.200	77.635	
502.300	58.839	
502.400	59.749	
502.500	70.138	
502.600	69.817	
502.700	53.697	
502.800	67.209	
502.900	72.631	
503.000	67.180	
503.100	69.480	
503.200	64.310	
503.300	72.206	
503.400	61.045	
503.500	72.252	
503.600	64.277	
503.700	56.197	
503.800	88.784	
503.900	77.378	
504.000	57.576	
504.100	73.957	
504.200	49.386	
504.300	59.316	
504.400	67.043	
504.500	70.410	
504.600	59.070	
504.700	73.120	
504.800	73.465	
504.900	54.407	
505.000	57.309	
505.100	67.446	
505.200	75.202	
505.300	59.873	
505.400	70.707	
505.500	77.405	
505.600	60.881	
505.700	62.049	
505.800	70.886	
505.900	69.399	
506.000	65.188	
506.100	57.022	
506.200	67.669	
506.300	62.841	
506.400	59.143	
506.500	69.022	
506.600	78.212	
506.700	54.609	
506.800	75.150	
506.900	59.555	
507.000	56.751	
507.100	60.006	
507.200	74.706	
507.300	65.006	
507.400	82.122	
507.500	61.485	
507.600	64.233	
507.700	59.668	
507.800	65.688	
507.900	68.183	
508.000	80.855	
508.100	66.402	
508.200	73.367	
508.300	62.401	
508.400	74.633	
508.500	66.099	
508.600	69.731	
508.700	53.244	
508.800	58.913	
508.900	66.327	
509.000	63.571	
509.100	63.613	
509.200	53.412	
509.300	71.397	
509.400	69.408	
509.500	64.701	
509.600	62.669	
509.700	54.601	
509.800	65.664	
509.900	63.824	
510.000	41.435	
510.100	78.936	
510.200	66.312	
510.300	54.714	
510.400	76.727	
510.500	72.565	
510.600	66.623	
510.700	69.563	
510.800	71.931	
510.900	54.054	
511.000	61.879	
511.100	67.970	
511.200	62.096	
511.300	54.049	
511.400	64.185	
511.500	67.927	
511.600	68.645	
511.700	72.015	
511.800	61.877	
511.900	67.102	
512.000	53.659	
512.100	77.493	
512.200	71.302	
512.300	50.155	
512.400	72.052	
512.500	74.568	
512.600	66.981	
512.700	68.080	
512.800	72.552	
512.900	54.779	
513.000	57.556	
513.100	59.973	
513.200	68.250	
513.300	71.336	
513.400	68.040	
513.500	59.409	
513.600	69.399	
513.700	50.779	
513.800	71.739	
513.900	71.735	
514.000	69.346	
514.100	66.478	
514.200	66.720	
514.300	69.057	
514.400	61.702	
514.500	62.013	
514.600	74.104	
514.700	70.169	
514.800	51.081	
514.900	72.594	
515.000	70.739	
515.100	73.271	
515.200	65.214	
515.300	58.590	
515.400	66.351	
515.500	61.960	
515.600	71.702	
515.700	68.438	
515.800	65.837	
515.900	67.148	
516.000	65.085	
516.100	67.783	
516.200	58.899	
516.300	59.893	
516.400	52.641	
516.500	77.204	
516.600	69.945	
516.700	65.802	
516.800	65.924	
516.900	61.227	
517.000	73.457	
517.100	62.420	
517.200	57.581	
517.300	71.249	
517.400	68.923	
517.500	62.227	
517.600	66.165	
517.700	56.336	
517.800	64.741	
517.900	60.791	
518.000	69.223	
518.100	65.278	
518.200	63.271	
518.300	64.136	
518.400	59.954	
518.500	72.500	
518.600	67.067	
518.700	71.569	
518.800	64.881	
518.900	58.195	
519.000	64.639	
519.100	65.817	
519.200	72.741	
519.300	55.152	
519.400	62.798	
519.500	63.366	
519.600	80.160	
519.700	71.461	
519.800	58.224	
519.900	70.010	
520.000	71.116	
520.100	55.322	
520.200	81.800	
520.300	52.573	
520.400	66.777	
520.500	81.416	
520.600	74.164	
520.700	71.937	
520.800	52.579	
520.900	65.991	
521.000	80.390	
521.100	72.542	
521.200	66.586	
521.300	68.469	
521.400	57.788	
521.500	60.554	
521.600	67.023	
521.700	76.198	
521.800	59.363	
521.900	49.841	
522.000	65.872	
522.100	71.184	
522.200	75.509	
522.300	56.441	
522.400	57.732	
522.500	52.399	
522.600	84.663	
522.700	51.900	
522.800	85.855	
522.900	70.120	
523.000	76.606	
523.100	64.613	
523.200	70.286	
523.300	63.471	
523.400	71.307	
523.500	62.566	
523.600	73.524	
523.700	71.432	
523.800	58.171	
523.900	60.045	
524.000	62.919	
524.100	66.684	
524.200	73.507	
524.300	69.117	
524.400	58.677	
524.500	78.867	
524.600	53.647	
524.700	73.891	
524.800	72.314	
524.900	71.637	
525.000	70.663	
525.100	68.772	
525.200	63.646	
525.300	81.576	
525.400	42.158	
525.500	77.208	
525.600	52.591	
525.700	87.319	
525.800	71.024	
525.900	76.358	
526.000	51.430	
526.100	77.182	
526.200	69.804	
526.300	71.368	
526.400	67.488	
526.500	65.147	
526.600	72.153	
526.700	59.323	
526.800	49.019	
526.900	53.217	
527.000	76.496	
527.100	66.273	
527.200	62.911	
527.300	58.747	
527.400	66.471	
527.500	73.879	
527.600	53.473	
527.700	64.853	
527.800	73.403	
527.900	69.620	
528.000	67.918	
528.100	61.077	
528.200	67.829	
528.300	62.666	
528.400	64.422	
528.500	79.723	
528.600	71.797	
528.700	66.134	
528.800	70.117	
528.900	75.936	
529.000	57.536	
529.100	72.053	
529.200	49.966	
529.300	86.688	
529.400	51.321	
529.500	55.881	
529.600	72.686	
529.700	64.916	
529.800	64.725	
529.900	61.149	
530.000	97.839	
530.100	66.789	
530.200	61.470	
530.300	72.656	
530.400	68.651	
530.500	72.963	
530.600	69.258	
530.700	79.466	
530.800	60.384	
530.900	73.995	
531.000	62.904	
531.100	64.642	
531.200	56.310	
531.300	74.981	
531.400	62.372	
531.500	78.959	
531.600	71.991	
531.700	75.381	
531.800	46.652	
531.900	70.517	
532.000	70.508	
532.100	83.072	
532.200	64.321	
532.300	56.430	
532.400	72.060	
532.500	77.391	
532.600	60.056	
532.700	78.829	
532.800	65.861	
532.900	67.208	
533.000	66.038	
533.100	62.078	
533.200	70.805	
533.300	67.408	
533.400	63.634	
533.500	65.241	
533.600	68.006	
533.700	48.719	
533.800	62.346	
533.900	78.773	
534.000	55.714	
534.100	88.027	
534.200	59.967	
534.300	63.543	
534.400	72.253	
534.500	70.185	
534.600	67.464	
534.700	67.196	
534.800	65.979	
534.900	51.752	
535.000	75.516	
535.100	62.950	
535.200	63.202	
535.300	69.922	
535.400	73.417	
535.500	78.712	
535.600	65.578	
535.700	48.303	
535.800	69.695	
535.900	74.607	
536.000	67.245	
536.100	71.675	
536.200	67.180	
536.300	62.167	
536.400	71.779	
536.500	73.720	
536.600	56.693	
536.700	66.321	
536.800	66.171	
536.900	68.708	
537.000	70.899	
537.100	69.870	
537.200	60.296	
537.300	69.755	
537.400	69.959	
537.500	71.208	
537.600	63.751	
537.700	67.957	
537.800	60.645	
537.900	76.929	
538.000	58.271	
538.100	59.926	
538.200	76.549	
538.300	53.241	
538.400	74.888	
538.500	69.094	
538.600	63.522	
538.700	65.449	
538.800	81.147	
538.900	67.437	
539.000	52.516	
539.100	72.374	
539.200	60.542	
539.300	59.096	
539.400	59.415	
539.500	50.740	
539.600	76.713	
539.700	55.398	
539.800	44.379	
539.900	39.889	
540.000	45.661	
540.100	33.038	
540.200	42.395	
540.300	32.531	
540.400	17.094	
540.500	20.495	
540.600	21.604	
540.700	18.348	
540.800	12.852	
540.900	18.135	
541.000	7.739	
541.100	5.539	
541.200	-4.709	
541.300	-8.317	
541.400	0.886	
541.500	-21.471	
541.600	-24.277	
541.700	-18.582	
541.800	-18.567	
541.900	-25.764	
542.000	-29.615	
542.100	-43.312	
542.200	-12.582	
542.300	-28.430	
542.400	-35.454	
542.500	-54.880	
542.600	-28.649	
542.700	-34.547	
542.800	-44.609	
542.900	-50.052	
543.000	-45.454	
543.100	-42.021	
543.200	-49.818	
543.300	-48.958	
543.400	-44.727	
543.500	-52.307	
543.600	-54.086	
543.700	-44.811	
543.800	-43.901	
543.900	-59.569	
544.000	-56.286	
544.100	-52.919	
544.200	-43.416	
544.300	-45.976	
544.400	-41.665	
544.500	-51.962	
544.600	-47.622	
544.700	-53.516	
544.800	-49.179	
544.900	-57.835	
545.000	-47.693	
545.100	-57.952	
545.200	-40.862	
545.300	-49.671	
545.400	-38.323	
545.500	-45.329	
545.600	-55.021	
545.700	-54.041	
545.800	-52.316	
545.900	-67.604	
546.000	-60.502	
546.100	-54.274	
546.200	-34.924	
546.300	-53.916	
546.400	-41.215	
546.500	-53.963	
546.600	-49.876	
546.700	-36.918	
546.800	-60.256	
546.900	-52.624	
547.000	-43.702	
547.100	-49.143	
547.200	-45.564	
547.300	-56.757	
547.400	-39.838	
547.500	-44.022	
547.600	-43.085	
547.700	-59.797	
547.800	-55.724	
547.900	-44.033	
548.000	-64.541	
548.100	-48.315	
548.200	-48.571	
548.300	-43.828	
548.400	-51.115	
548.500	-40.670	
548.600	-47.927	
548.700	-34.344	
548.800	-59.616	
548.900	-34.552	
549.000	-52.829	
549.100	-42.553	
549.200	-40.349	
549.300	-51.654	
549.400	-55.069	
549.500	-34.123	
549.600	-55.938	
549.700	-42.363	
549.800	-50.404	
549.900	-47.936	
550.000	-48.673	
550.100	-40.644	
550.200	-44.262	
550.300	-59.513	
550.400	-45.501	
550.500	-49.161	
550.600	-53.196	
550.700	-58.094	
550.800	-42.196	
550.900	-51.018	
551.000	-62.818	
551.100	-36.829	
551.200	-33.863	
551.300	-40.720	
551.400	-44.009	
551.500	-49.502	
551.600	-56.380	
551.700	-35.220	
551.800	-58.654	
551.900	-43.345	
552.000	-54.916	
552.100	-54.372	
552.200	-42.789	
552.300	-55.325	
552.400	-60.248	
552.500	-40.274	
552.600	-39.379	
552.700	-55.063	
552.800	-43.123	
552.900	-45.469	
553.000	-55.666	
553.100	-47.758	
553.200	-49.632	
553.300	-53.913	
553.400	-54.370	
553.500	-50.688	
553.600	-55.151	
553.700	-44.740	
553.800	-39.834	
553.900	-53.766	
554.000	-55.513	
554.100	-64.634	
554.200	-43.441	
554.300	-46.445	
554.400	-46.393	
554.500	-46.657	
554.600	-44.700	
554.700	-54.247	
554.800	-51.707	
554.900	-57.395	
555.000	-50.719	
555.100	-53.452	
555.200	-45.972	
555.300	-54.244	
555.400	-33.904	
555.500	-44.547	
555.600	-42.905	
555.700	-42.873	
555.800	-49.741	
555.900	-62.636	
556.000	-63.613	
556.100	-47.650	
556.200	-48.011	
556.300	-52.936	
556.400	-59.729	
556.500	-49.886	
556.600	-50.251	
556.700	-41.099	
556.800	-55.281	
556.900	-55.823	
557.000	-47.167	
557.100	-55.456	
557.200	-51.202	
557.300	-61.290	
557.400	-47.701	
557.500	-56.033	
557.600	-44.051	
557.700	-47.966	
557.800	-45.993	
557.900	-57.000	
558.000	-45.896	
558.100	-50.405	
558.200	-42.109	
558.300	-37.176	
558.400	-62.949	
558.500	-56.151	
558.600	-63.362	
558.700	-51.228	
558.800	-59.706	
558.900	-39.595	
559.000	-44.615	
559.100	-59.453	
559.200	-55.755	
559.300	-50.003	
559.400	-45.561	
559.500	-52.128	
559.600	-47.340	
559.700	-36.329	
559.800	-53.134	
559.900	-55.125	
560.000	-38.667	
560.100	-44.039	
560.200	-49.939	
560.300	-57.396	
560.400	-54.670	
560.500	-50.085	
560.600	-43.683	
560.700	-44.932	
560.800	-48.735	
560.900	-41.603	
561.000	-51.720	
561.100	-58.541	
561.200	-55.726	
561.300	-54.796	
561.400	-51.631	
561.500	-60.147	
561.600	-44.698	
561.700	-39.363	
561.800	-46.470	
561.900	-57.582	
562.000	-39.286	
562.100	-53.413	
562.200	-52.565	
562.300	-67.361	
562.400	-60.469	
562.500	-56.014	
562.600	-48.406	
562.700	-36.021	
562.800	-49.932	
562.900	-66.385	
563.000	-48.309	
563.100	-35.866	
563.200	-48.318	
563.300	-40.266	
563.400	-47.513	
563.500	-53.505	
563.600	-50.767	
563.700	-42.881	
563.800	-55.634	
563.900	-46.364	
564.000	-50.760	
564.100	-44.785	
564.200	-61.583	
564.300	-50.389	
564.400	-42.879	
564.500	-60.924	
564.600	-61.249	
564.700	-37.623	
564.800	-50.965	
564.900	-55.730	
565.000	-48.155	
565.100	-57.004	
565.200	-45.494	
565.300	-43.529	
565.400	-50.077	
565.500	-40.988	
565.600	-38.067	
565.700	-56.469	
565.800	-52.308	
565.900	-59.841	
566.000	-49.010	
566.100	-51.376	
566.200	-57.099	
566.300	-40.925	
566.400	-46.782	
566.500	-49.329	
566.600	-49.568	
566.700	-45.189	
566.800	-46.838	
566.900	-53.535	
567.000	-40.791	
567.100	-40.102	
567.200	-47.772	
567.300	-41.129	
567.400	-52.738	
567.500	-53.537	
567.600	-43.072	
567.700	-52.263	
567.800	-54.831	
567.900	-52.616	
568.000	-36.726	
568.100	-43.187	
568.200	-51.290	
568.300	-40.729	
568.400	-46.443	
568.500	-39.959	
568.600	-34.100	
568.700	-52.108	
568.800	-39.415	
568.900	-44.499	
569.000	-42.999	
569.100	-57.785	
569.200	-38.523	
569.300	-41.565	
569.400	-40.332	
569.500	-44.543	
569.600	-42.412	
569.700	-41.521	
569.800	-43.352	
569.900	-45.048	
570.000	-38.937	
570.100	-48.867	
570.200	-39.629	
570.300	-67.204	
570.400	-53.756	
570.500	-38.964	
570.600	-38.556	
570.700	-29.548	
570.800	-49.656	
570.900	-33.474	
571.000	-50.220	
571.100	-37.957	
571.200	-39.204	
571.300	-44.351	
571.400	-51.378	
571.500	-26.309	
571.600	-40.324	
571.700	-53.285	
571.800	-25.523	
571.900	-51.104	
572.000	-36.722	
572.100	-53.636	
572.200	-46.863	
572.300	-40.543	
572.400	-43.880	
572.500	-50.051	
572.600	-47.286	
572.700	-42.945	
572.800	-29.766	
572.900	-54.490	
573.000	-41.036	
573.100	-46.515	
573.200	-45.187	
573.300	-33.138	
573.400	-47.838	
573.500	-33.493	
573.600	-40.946	
573.700	-42.781	
573.800	-47.264	
573.900	-47.780	
574.000	-49.669	
574.100	-31.323	
574.200	-48.678	
574.300	-45.536	
574.400	-50.795	
574.500	-42.961	
574.600	-51.865	
574.700	-48.308	
574.800	-49.213	
574.900	-45.978	
575.000	-40.562	
575.100	-36.797	
575.200	-27.980	
575.300	-56.048	
575.400	-49.153	
575.500	-45.579	
575.600	-28.276	
575.700	-38.858	
575.800	-49.395	
575.900	-42.814	
576.000	-40.302	
576.100	-40.937	
576.200	-50.612	
576.300	-42.311	
576.400	-31.029	
576.500	-46.981	
576.600	-42.320	
576.700	-28.973	
576.800	-44.119	
576.900	-37.389	
577.000	-32.314	
577.100	-30.502	
577.200	-49.204	
577.300	-43.912	
577.400	-51.787	
577.500	-43.227	
577.600	-38.351	
577.700	-35.033	
577.800	-48.308	
577.900	-46.830	
578.000	-36.158	
578.100	-33.449	
578.200	-37.028	
578.300	-43.860	
578.400	-34.537	
578.500	-47.710	
578.600	-37.417	
578.700	-15.736	
578.800	-39.127	
578.900	-40.906	
579.000	-33.322	
579.100	-29.162	
579.200	-51.692	
579.300	-32.157	
579.400	-25.517	
579.500	-52.894	
579.600	-41.969	
579.700	-37.132	
579.800	-33.919	
579.900	-35.769	
580.000	-53.301	
580.100	-26.017	
580.200	-35.963	
580.300	-36.357	
580.400	-34.901	
580.500	-44.852	
580.600	-38.562	
580.700	-34.270	
580.800	-36.077	
580.900	-34.249	
581.000	-37.858	
581.100	-30.950	
581.200	-42.169	
581.300	-39.618	
581.400	-40.766	
581.500	-32.435	
581.600	-41.241	
581.700	-48.076	
581.800	-32.135	
581.900	-49.610	
582.000	-23.507	
582.100	-23.461	
582.200	-22.902	
582.300	-42.437	
582.400	-43.339	
582.500	-45.141	
582.600	-63.908	
582.700	-35.539	
582.800	-9.638	
582.900	-41.330	
583.000	-40.998	
583.100	-39.145	
583.200	-28.878	
583.300	-46.324	
583.400	-36.523	
583.500	-42.500	
583.600	-31.587	
583.700	-45.191	
583.800	-34.835	
583.900	-35.100	
584.000	-42.070	
584.100	-36.961	
584.200	-33.722	
584.300	-49.673	
584.400	-30.349	
584.500	-34.474	
584.600	-35.362	
584.700	-44.336	
584.800	-42.030	
584.900	-40.685	
585.000	-35.357	
585.100	-48.097	
585.200	-30.142	
585.300	-34.252	
585.400	-37.149	
585.500	-33.539	
585.600	-41.220	
585.700	-35.657	
585.800	-48.442	
585.900	-37.188	
586.000	-35.242	
586.100	-40.965	
586.200	-40.270	
586.300	-36.921	
586.400	-45.048	
586.500	-23.784	
586.600	-19.946	
586.700	-36.451	
586.800	-38.134	
586.900	-51.209	
587.000	-39.321	
587.100	-36.254	
587.200	-29.250	
587.300	-40.946	
587.400	-46.524	
587.500	-35.729	
587.600	-25.516	
587.700	-31.323	
587.800	-45.747	
587.900	-33.866	
588.000	-31.828	
588.100	-22.232	
588.200	-36.057	
588.300	-34.098	
588.400	-38.351	
588.500	-35.372	
588.600	-33.716	
588.700	-32.433	
588.800	-43.919	
588.900	-38.577	
589.000	-28.154	
589.100	-36.463	
589.200	-26.613	
589.300	-35.699	
589.400	-37.428	
589.500	-31.860	
589.600	-43.742	
589.700	-39.923	
589.800	-37.293	
589.900	-45.247	
590.000	-30.907	
590.100	-31.932	
590.200	-28.088	
590.300	-32.819	
590.400	-31.397	
590.500	-36.026	
590.600	-42.972	
590.700	-29.631	
590.800	-35.755	
590.900	-36.074	
591.000	-25.575	
591.100	-42.850	
591.200	-21.178	
591.300	-39.970	
591.400	-38.797	
591.500	-23.185	
591.600	-41.080	
591.700	-36.304	
591.800	-25.408	
591.900	-25.829	
592.000	-40.637	
592.100	-39.358	
592.200	-40.221	
592.300	-22.963	
592.400	-21.163	
592.500	-22.256	
592.600	-34.646	
592.700	-29.405	
592.800	-15.179	
592.900	-47.006	
593.000	-22.480	
593.100	-28.657	
593.200	-45.684	
593.300	-22.091	
593.400	-29.745	
593.500	-41.899	
593.600	-24.645	
593.700	-40.073	
593.800	-25.424	
593.900	-31.429	
594.000	-30.894	
594.100	-32.146	
594.200	-20.037	
594.300	-40.267	
594.400	-26.780	
594.500	-28.436	
594.600	-26.372	
594.700	-38.916	
594.800	-38.158	
594.900	-23.457	
595.000	-25.237	
595.100	-36.234	
595.200	-29.718	
595.300	-23.304	
595.400	-27.361	
595.500	-47.934	
595.600	-32.478	
595.700	-29.600	
595.800	-37.343	
595.900	-22.633	
596.000	-17.316	
596.100	-41.954	
596.200	-36.395	
596.300	-39.992	
596.400	-20.233	
596.500	-29.598	
596.600	-33.253	
596.700	-17.473	
596.800	-29.499	
596.900	-30.754	
597.000	-29.917	
597.100	-48.224	
597.200	-27.393	
597.300	-29.801	
597.400	-33.091	
597.500	-24.533	
597.600	-31.732	
597.700	-22.244	
597.800	-37.561	
597.900	-36.974	
598.000	-25.607	
598.100	-26.364	
598.200	-32.278	
598.300	-30.485	
598.400	-29.090	
598.500	-21.033	
598.600	-29.453	
598.700	-43.704	
598.800	-39.532	
598.900	-36.122	
599.000	-38.404	
599.100	-27.823	
599.200	-21.604	
599.300	-42.018	
599.400	-10.189	
599.500	-33.920	
599.600	-33.443	
599.700	-35.674	
599.800	-22.928	
599.900	-34.601	
600.000	-31.519	
600.100	-34.714	
600.200	-35.119	
600.300	-31.972	
600.400	-8.884	
600.500	-28.083	
600.600	-28.383	
600.700	-24.432	
600.800	-23.775	
600.900	-30.292	
601.000	-20.644	
601.100	-31.968	
601.200	-25.654	
601.300	-44.121	
601.400	-26.651	
601.500	-32.196	
601.600	-24.165	
601.700	-42.448	
601.800	-38.116	
601.900	-28.370	
602.000	-33.561	
602.100	-26.425	
602.200	-51.077	
602.300	-20.654	
602.400	-29.300	
602.500	-28.276	
602.600	-20.329	
602.700	-33.649	
602.800	-32.843	
602.900	-25.936	
603.000	-27.620	
603.100	-28.347	
603.200	-16.609	
603.300	-44.870	
603.400	-32.816	
603.500	-39.630	
603.600	-31.618	
603.700	-34.152	
603.800	-36.998	
603.900	-34.741	
604.000	-43.885	
604.100	-24.693	
604.200	-18.737	
604.300	-30.977	
604.400	-34.477	
604.500	-21.236	
604.600	-42.901	
604.700	-40.027	
604.800	-6.223	
604.900	-35.863	
605.000	-35.430	
605.100	-35.732	
605.200	-23.077	
605.300	-21.598	
605.400	-25.142	
605.500	-26.257	
605.600	-25.134	
605.700	-25.317	
605.800	-22.334	
605.900	-32.704	
606.000	-26.275	
606.100	-27.852	
606.200	-20.706	
606.300	-25.608	
606.400	-34.010	
606.500	-37.172	
606.600	-33.885	
606.700	-13.898	
606.800	-28.669	
606.900	-34.983	
607.000	-25.377	
607.100	-38.986	
607.200	-28.134	
607.300	-16.996	
607.400	-40.141	
607.500	-26.932	
607.600	-36.008	
607.700	-22.670	
607.800	-29.833	
607.900	-18.128	
608.000	-26.789	
608.100	-44.321	
608.200	-26.942	
608.300	-12.929	
608.400	-26.947	
608.500	-29.004	
608.600	-20.948	
608.700	-29.289	
608.800	-27.198	
608.900	-21.037	
609.000	-41.423	
609.100	-11.241	
609.200	-23.121	
609.300	-44.588	
609.400	-38.662	
609.500	-26.058	
609.600	-15.673	
609.700	-33.446	
609.800	-30.250	
609.900	-24.775	
610.000	-28.899	
610.100	-20.495	
610.200	-36.804	
610.300	-24.596	
610.400	-39.112	
610.500	-21.760	
610.600	-20.192	
610.700	-18.758	
610.800	-37.661	
610.900	-12.602	
611.000	-22.985	
611.100	-34.877	
611.200	-32.439	
611.300	-35.805	
611.400	-42.243	
611.500	-12.977	
611.600	-16.582	
611.700	-26.110	
611.800	-30.041	
611.900	-39.590	
612.000	-33.265	
612.100	-41.301	
612.200	-28.878	
612.300	-23.499	
612.400	-16.109	
612.500	-34.140	
612.600	-27.049	
612.700	-24.072	
612.800	-40.487	
612.900	-20.419	
613.000	-25.963	
613.100	-19.844	
613.200	-24.002	
613.300	-16.851	
613.400	-34.219	
613.500	-28.776	
613.600	-33.317	
613.700	-15.895	
613.800	-28.794	
613.900	-29.556	
614.000	-19.732	
614.100	-25.763	
614.200	-12.081	
614.300	-31.878	
614.400	-45.574	
614.500	-41.429	
614.600	-12.809	
614.700	-20.142	
614.800	-28.385	
614.900	-28.896	
615.000	-15.246	
615.100	-29.991	
615.200	-17.407	
615.300	-33.659	
615.400	-25.021	
615.500	-34.482	
615.600	-26.105	
615.700	-6.004	
615.800	-41.381	
615.900	-18.502	
616.000	-27.597	
616.100	-32.556	
616.200	-40.316	
616.300	-29.798	
616.400	-14.218	
616.500	-41.537	
616.600	-14.571	
616.700	-37.310	
616.800	-14.938	
616.900	-28.530	
617.000	-21.121	
617.100	-26.196	
617.200	-21.257	
617.300	-31.183	
617.400	-19.401	
617.500	-28.788	
617.600	-25.264	
617.700	-14.557	
617.800	-28.914	
617.900	-36.589	
618.000	-4.116	
618.100	-28.360	
618.200	-10.772	
618.300	-30.361	
618.400	-35.014	
618.500	-18.903	
618.600	-26.457	
618.700	-35.335	
618.800	-20.519	
618.900	-28.912	
619.000	-29.203	
619.100	-21.029	
619.200	-22.157	
619.300	-37.102	
619.400	-9.166	
619.500	-24.329	
619.600	-14.437	
619.700	-32.082	
619.800	-18.055	
619.900	-13.330	
620.000	-19.817	
620.100	-9.494	
620.200	-31.034	
620.300	-32.812	
620.400	-9.985	
620.500	-35.093	
620.600	-9.969	
620.700	-20.306	
620.800	-15.583	
620.900	-29.825	
621.000	-20.832	
621.100	-19.678	
621.200	-27.166	
621.300	-20.531	
621.400	-24.717	
621.500	-14.509	
621.600	-24.116	
621.700	-25.237	
621.800	-17.329	
621.900	-15.133	
622.000	-21.211	
622.100	-23.314	
622.200	-9.280	
622.300	-21.383	
622.400	-22.220	
622.500	-29.428	
622.600	-23.190	
622.700	-29.518	
622.800	-8.620	
622.900	-26.369	
623.000	-28.037	
623.100	-35.931	
623.200	-11.698	
623.300	-42.783	
623.400	-21.707	
623.500	-12.216	
623.600	-28.194	
623.700	-28.048	
623.800	-27.431	
623.900	-22.321	
624.000	-15.454	
624.100	-13.408	
624.200	-24.374	
624.300	-29.580	
624.400	-21.765	
624.500	-17.799	
624.600	-18.475	
624.700	-10.040	
624.800	-28.764	
624.900	-23.363	
625.000	-19.307	
625.100	-28.387	
625.200	-28.562	
625.300	-21.067	
625.400	-26.523	
625.500	-21.109	
625.600	-20.247	
625.700	-43.882	
625.800	-20.934	
625.900	-18.567	
626.000	-16.792	
626.100	-17.779	
626.200	-6.204	
626.300	-34.225	
626.400	-16.981	
626.500	-34.042	
626.600	-5.384	
626.700	-10.857	
626.800	-39.706	
626.900	-16.198	
627.000	-24.892	
627.100	-35.026	
627.200	-18.940	
627.300	-28.954	
627.400	-23.727	
627.500	-13.926	
627.600	-7.635	
627.700	-22.226	
627.800	-25.061	
627.900	-23.487	
628.000	-28.309	
628.100	-26.581	
628.200	-14.384	
628.300	-8.028	
628.400	-29.688	
628.500	-12.959	
628.600	-41.730	
628.700	-18.913	
628.800	-22.510	
628.900	-27.672	
629.000	-6.698	
629.100	-19.965	
629.200	-27.807	
629.300	-16.848	
629.400	-21.389	
629.500	-34.149	
629.600	0.145	
629.700	16.928	
629.800	17.605	
629.900	35.606	
630.000	21.933	
630.100	37.217	
630.200	45.419	
630.300	61.481	
630.400	52.013	
630.500	47.930	
630.600	40.378	
630.700	48.809	
630.800	33.716	
630.900	51.962	
631.000	41.427	
631.100	51.480	
631.200	48.832	
631.300	62.547	
631.400	44.201	
631.500	53.137	
631.600	51.408	
631.700	64.670	
631.800	50.084	
631.900	24.691	
632.000	50.280	
632.100	42.849	
632.200	48.275	
632.300	39.535	
632.400	49.696	
632.500	46.432	
632.600	46.470	
632.700	44.264	
632.800	30.504	
632.900	49.638	
633.000	49.586	
633.100	41.980	
633.200	27.567	
633.300	38.320	
633.400	21.407	
633.500	47.599	
633.600	32.146	
633.700	47.173	
633.800	39.421	
633.900	30.052	
634.000	39.838	
634.100	49.823	
634.200	27.063	
634.300	50.724	
634.400	43.848	
634.500	34.961	
634.600	32.377	
634.700	45.549	
634.800	38.397	
634.900	58.343	
635.000	60.645	
635.100	55.644	
635.200	40.510	
635.300	51.877	
635.400	66.819	
635.500	69.114	
635.600	56.429	
635.700	61.799	
635.800	68.419	
635.900	57.552	
636.000	61.117	
636.100	62.408	
636.200	55.839	
636.300	47.593	
636.400	54.874	
636.500	73.979	
636.600	72.237	
636.700	78.163	
636.800	69.131	
636.900	71.133	
637.000	71.934	
637.100	80.776	
637.200	75.285	
637.300	72.531	
637.400	79.681	
637.500	61.593	
637.600	75.057	
637.700	72.523	
637.800	72.938	
637.900	68.720	
638.000	87.871	
638.100	82.615	
638.200	69.453	
638.300	78.333	
638.400	74.133	
638.500	85.532	
638.600	73.068	
638.700	83.798	
638.800	78.148	
638.900	78.600	
639.000	70.661	
639.100	80.259	
639.200	75.505	
639.300	83.186	
639.400	70.968	
639.500	81.074	
639.600	74.265	
639.700	80.051	
639.800	69.921	
639.900	92.331	
640.000	72.867	
640.100	68.243	
640.200	91.642	
640.300	83.250	
640.400	77.121	
640.500	94.197	
640.600	80.225	
640.700	76.666	
640.800	77.447	
640.900	68.838	
641.000	75.780	
641.100	76.820	
641.200	66.023	
641.300	73.437	
641.400	68.680	
641.500	76.598	
641.600	78.753	
641.700	79.153	
641.800	73.058	
641.900	59.034	
642.000	80.923	
642.100	78.169	
642.200	81.681	
642.300	73.268	
642.400	76.291	
642.500	78.950	
642.600	72.977	
642.700	76.452	
642.800	72.625	
642.900	66.101	
643.000	71.332	
643.100	77.997	
643.200	73.545	
643.300	76.081	
643.400	81.190	
643.500	88.552	
643.600	75.296	
643.700	85.230	
643.800	75.202	
643.900	61.929	
644.000	61.126	
644.100	77.908	
644.200	84.708	
644.300	85.931	
644.400	73.829	
644.500	77.885	
644.600	81.382	
644.700	66.830	
644.800	76.937	
644.900	65.098	
645.000	55.436	
645.100	77.814	
645.200	65.959	
645.300	74.038	
645.400	81.593	
645.500	67.753	
645.600	62.035	
645.700	70.039	
645.800	77.137	
645.900	89.707	
646.000	73.805	
646.100	73.092	
646.200	75.804	
646.300	73.758	
646.400	66.694	
646.500	70.507	
646.600	70.973	
646.700	79.734	
646.800	70.683	
646.900	71.432	
647.000	80.175	
647.100	74.151	
647.200	88.582	
647.300	57.137	
647.400	75.783	
647.500	71.110	
647.600	75.720	
647.700	65.342	
647.800	65.149	
647.900	72.659	
648.000	84.551	
648.100	71.251	
648.200	72.242	
648.300	65.252	
648.400	63.120	
648.500	73.814	
648.600	57.790	
648.700	76.548	
648.800	72.213	
648.900	60.683	
649.000	64.040	
649.100	67.532	
649.200	66.147	
649.300	70.332	
649.400	70.412	
649.500	65.227	
649.600	61.992	
649.700	72.801	
649.800	73.033	
649.900	66.255	
650.000	81.923	
650.100	70.574	
650.200	58.259	
650.300	69.706	
650.400	60.435	
650.500	76.569	
650.600	61.247	
650.700	76.113	
650.800	68.750	
650.900	61.214	
651.000	68.548	
651.100	53.997	
651.200	58.778	
651.300	61.251	
651.400	58.390	
651.500	79.996	
651.600	63.590	
651.700	76.418	
651.800	69.522	
651.900	78.795	
652.000	61.641	
652.100	67.860	
652.200	74.317	
652.300	57.463	
652.400	64.631	
652.500	74.355	
652.600	63.403	
652.700	63.497	
652.800	62.723	
652.900	48.502	
653.000	84.825	
653.100	65.920	
653.200	68.709	
653.300	66.312	
653.400	62.073	
653.500	72.152	
653.600	61.563	
653.700	74.906	
653.800	61.704	
653.900	69.857	
654.000	62.849	
654.100	63.669	
654.200	60.748	
654.300	78.878	
654.400	53.764	
654.500	58.142	
654.600	68.701	
654.700	57.341	
654.800	80.404	
654.900	52.259	
655.000	62.998	
655.100	73.733	
655.200	70.385	
655.300	67.604	
655.400	60.581	
655.500	61.838	
655.600	70.664	
655.700	74.465	
655.800	68.736	
655.900	63.340	
656.000	59.436	
656.100	76.964	
656.200	72.489	
656.300	61.023	
656.400	57.430	
656.500	68.890	
656.600	67.107	
656.700	76.290	
656.800	62.198	
656.900	61.412	
657.000	67.485	
657.100	64.831	
657.200	64.628	
657.300	60.783	
657.400	65.822	
657.500	79.166	
657.600	62.919	
657.700	55.541	
657.800	84.112	
657.900	54.914	
658.000	67.967	
658.100	73.424	
658.200	51.412	
658.300	57.024	
658.400	69.667	
658.500	60.982	
658.600	65.690	
658.700	67.678	
658.800	62.817	
658.900	62.253	
659.000	79.866	
659.100	74.786	
659.200	50.419	
659.300	53.615	
659.400	53.122	
659.500	76.278	
659.600	61.112	
659.700	66.634	
659.800	62.979	
659.900	53.436	
660.000	64.727	
660.100	64.296	
660.200	55.647	
660.300	72.016	
660.400	74.072	
660.500	55.483	
660.600	63.214	
660.700	69.781	
660.800	63.273	
660.900	65.111	
661.000	62.615	
661.100	64.768	
661.200	68.738	
661.300	59.812	
661.400	69.193	
661.500	51.185	
661.600	50.309	
661.700	66.956	
661.800	73.129	
661.900	58.258	
662.000	52.430	
662.100	85.507	
662.200	58.478	
662.300	76.055	
662.400	58.316	
662.500	56.330	
662.600	68.467	
662.700	63.107	
662.800	51.308	
662.900	70.126	
663.000	55.388	
663.100	59.529	
663.200	71.923	
663.300	68.293	
663.400	47.552	
663.500	78.578	
663.600	67.417	
663.700	62.596	
663.800	64.840	
663.900	58.123	
664.000	62.132	
664.100	68.803	
664.200	65.360	
664.300	65.204	
664.400	64.924	
664.500	70.124	
664.600	59.703	
664.700	79.762	
664.800	52.189	
664.900	70.311	
665.000	71.862	
665.100	69.293	
665.200	52.268	
665.300	64.828	
665.400	71.247	
665.500	63.767	
665.600	71.024	
665.700	67.273	
665.800	73.623	
665.900	60.176	
666.000	53.542	
666.100	68.847	
666.200	62.839	
666.300	65.531	
666.400	71.790	
666.500	61.458	
666.600	58.865	
666.700	59.433	
666.800	71.024	
666.900	56.371	
667.000	75.075	
667.100	58.504	
667.200	58.484	
667.300	66.920	
667.400	61.271	
667.500	76.832	
667.600	65.609	
667.700	64.085	
667.800	69.487	
667.900	59.785	
668.000	46.266	
668.100	67.628	
668.200	64.793	
668.300	64.325	
668.400	73.628	
668.500	62.375	
668.600	64.322	
668.700	55.338	
668.800	59.251	
668.900	62.297	
669.000	68.026	
669.100	62.514	
669.200	77.518	
669.300	64.356	
669.400	41.986	
669.500	73.574	
669.600	72.405	
669.700	65.661	
669.800	72.497	
669.900	63.553	
670.000	72.751	
670.100	72.035	
670.200	79.311	
670.300	58.973	
670.400	70.197	
670.500	53.603	
670.600	69.021	
670.700	78.438	
670.800	62.245	
670.900	63.192	
671.000	56.065	
671.100	73.253	
671.200	70.178	
671.300	54.270	
671.400	58.476	
671.500	70.185	
671.600	64.777	
671.700	79.345	
671.800	62.003	
671.900	61.256	
672.000	61.306	
672.100	59.252	
672.200	89.013	
672.300	62.286	
672.400	63.933	
672.500	66.057	
672.600	62.536	
672.700	68.339	
672.800	56.503	
672.900	61.617	
673.000	72.327	
673.100	79.541	
673.200	55.260	
673.300	70.202	
673.400	68.865	
673.500	61.324	
673.600	65.557	
673.700	73.731	
673.800	71.750	
673.900	70.730	
674.000	63.476	
674.100	58.543	
674.200	66.576	
674.300	64.803	
674.400	66.021	
674.500	74.264	
674.600	67.544	
674.700	66.015	
674.800	73.250	
674.900	63.732	
675.000	67.935	
675.100	64.587	
675.200	62.313	
675.300	78.846	
675.400	60.526	
675.500	67.546	
675.600	73.904	
675.700	65.747	
675.800	65.512	
675.900	58.415	
676.000	68.379	
676.100	62.298	
676.200	71.993	
676.300	78.408	
676.400	58.241	
676.500	66.248	
676.600	63.794	
676.700	53.189	
676.800	65.525	
676.900	61.039	
677.000	64.169	
677.100	59.997	
677.200	68.395	
677.300	51.852	
677.400	84.804	
677.500	64.201	
677.600	63.578	
677.700	68.090	
677.800	55.812	
677.900	72.395	
678.000	77.439	
678.100	74.306	
678.200	67.510	
678.300	69.384	
678.400	63.047	
678.500	72.943	
678.600	60.315	
678.700	66.021	
678.800	66.375	
678.900	60.521	
679.000	58.092	
679.100	68.620	
679.200	77.325	
679.300	55.527	
679.400	81.436	
679.500	73.041	
679.600	57.969	
679.700	72.936	
679.800	51.950	
679.900	70.455	
680.000	63.987	
680.100	70.803	
680.200	71.650	
680.300	47.771	
680.400	69.674	
680.500	74.634	
680.600	83.956	
680.700	62.062	
680.800	63.257	
680.900	68.526	
681.000	60.189	
681.100	54.400	
681.200	68.894	
681.300	62.989	
681.400	67.253	
681.500	71.394	
681.600	69.497	
681.700	66.762	
681.800	69.446	
681.900	66.374	
682.000	59.716	
682.100	73.683	
682.200	71.039	
682.300	60.203	
682.400	54.296	
682.500	60.312	
682.600	57.853	
682.700	72.682	
682.800	84.473	
682.900	67.207	
683.000	67.268	
683.100	77.973	
683.200	63.501	
683.300	63.514	
683.400	62.210	
683.500	70.962	
683.600	67.350	
683.700	77.845	
683.800	62.470	
683.900	70.759	
684.000	65.281	
684.100	62.296	
684.200	66.533	
684.300	73.090	
684.400	70.473	
684.500	62.774	
684.600	70.336	
684.700	67.179	
684.800	66.283	
684.900	70.701	
685.000	73.602	
685.100	43.989	
685.200	58.948	
685.300	64.049	
685.400	61.121	
685.500	66.022	
685.600	66.399	
685.700	67.659	
685.800	77.500	
685.900	49.141	
686.000	60.680	
686.100	70.976	
686.200	60.483	
686.300	65.966	
686.400	61.007	
686.500	69.437	
686.600	52.182	
686.700	70.072	
686.800	75.548	
686.900	51.089	
687.000	66.883	
687.100	60.762	
687.200	48.685	
687.300	75.637	
687.400	70.246	
687.500	64.922	
687.600	62.219	
687.700	66.964	
687.800	62.039	
687.900	65.179	
688.000	67.176	
688.100	72.930	
688.200	58.363	
688.300	69.714	
688.400	59.563	
688.500	59.844	
688.600	71.605	
688.700	59.585	
688.800	51.705	
688.900	59.607	
689.000	66.532	
689.100	80.984	
689.200	74.452	
689.300	79.165	
689.400	60.937	
689.500	55.099	
689.600	64.128	
689.700	67.207	
689.800	54.114	
689.900	47.885	
690.000	45.376	
690.100	51.716	
690.200	37.305	
690.300	32.408	
690.400	29.337	
690.500	18.232	
690.600	27.436	
690.700	32.867	
690.800	10.648	
690.900	7.562	
691.000	13.114	
691.100	9.205	
691.200	1.492	
691.300	-13.890	
691.400	-8.857	
691.500	-13.514	
691.600	-18.164	
691.700	-3.225	
691.800	-35.102	
691.900	-28.915	
692.000	-20.759	
692.100	-27.347	
692.200	-36.465	
692.300	-21.260	
692.400	-38.282	
692.500	-36.495	
692.600	-40.369	
692.700	-37.473	
692.800	-34.063	
692.900	-46.569	
693.000	-34.162	
693.100	-45.298	
693.200	-42.626	
693.300	-32.568	
693.400	-44.357	
693.500	-63.401	
693.600	-47.397	
693.700	-51.733	
693.800	-59.708	
693.900	-38.472	
694.000	-57.307	
694.100	-33.594	
694.200	-43.962	
694.300	-49.227	
694.400	-58.515	
694.500	-54.432	
694.600	-52.894	
694.700	-44.078	
694.800	-54.130	
694.900	-48.951	
695.000	-39.676	
695.100	-54.489	
695.200	-57.809	
695.300	-54.326	
695.400	-37.994	
695.500	-43.096	
695.600	-39.844	
695.700	-48.129	
695.800	-55.729	
695.900	-50.035	
696.000	-39.102	
696.100	-26.328	
696.200	-43.801	
696.300	-49.608	
696.400	-46.153	
696.500	-40.602	
696.600	-53.451	
696.700	-49.248	
696.800	-48.606	
696.900	-54.185	
697.000	-59.559	
697.100	-53.395	
697.200	-59.402	
697.300	-51.437	
697.400	-44.007	
697.500	-43.038	
697.600	-44.918	
697.700	-39.777	
697.800	-52.072	
697.900	-50.673	
698.000	-50.372	
698.100	-41.328	
698.200	-43.748	
698.300	-48.350	
698.400	-54.434	
698.500	-51.805	
698.600	-35.828	
698.700	-66.875	
698.800	-46.879	
698.900	-45.869	
699.000	-55.746	
699.100	-43.263	
699.200	-50.596	
699.300	-48.640	
699.400	-44.853	
699.500	-36.600	
699.600	-48.604	
699.700	-55.199	
699.800	-38.025	
699.900	-50.130	
700.000	-49.697	
700.100	-56.636	
700.200	-30.612	
700.300	-57.977	
700.400	-42.535	
700.500	-44.113	
700.600	-49.494	
700.700	-38.513	
700.800	-53.982	
700.900	-47.973	
701.000	-52.491	
701.100	-61.947	
701.200	-60.028	
701.300	-57.567	
701.400	-48.890	
701.500	-51.086	
701.600	-49.284	
701.700	-61.837	
701.800	-34.994	
701.900	-58.509	
702.000	-51.756	
702.100	-48.213	
702.200	-50.857	
702.300	-49.938	
702.400	-51.943	
702.500	-54.405	
702.600	-50.062	
702.700	-67.633	
702.800	-53.285	
702.900	-57.061	
703.000	-53.272	
703.100	-54.497	
703.200	-51.895	
703.300	-60.952	
703.400	-49.026	
703.500	-36.805	
703.600	-57.360	
703.700	-69.713	
703.800	-41.194	
703.900	-69.536	
704.000	-57.915	
704.100	-49.630	
704.200	-51.073	
704.300	-63.691	
704.400	-50.702	
704.500	-53.854	
704.600	-55.632	
704.700	-57.340	
704.800	-57.236	
704.900	-50.561	
705.000	-47.033	
705.100	-38.706	
705.200	-71.491	
705.300	-45.447	
705.400	-49.475	
705.500	-69.439	
705.600	-44.454	
705.700	-54.980	
705.800	-56.501	
705.900	-63.610	
706.000	-62.115	
706.100	-45.690	
706.200	-61.952	
706.300	-64.711	
706.400	-47.866	
706.500	-45.394	
706.600	-42.625	
706.700	-53.968	
706.800	-62.670	
706.900	-52.621	
707.000	-59.157	
707.100	-58.754	
707.200	-32.038	
707.300	-48.930	
707.400	-63.795	
707.500	-36.300	
707.600	-63.312	
707.700	-55.074	
707.800	-45.091	
707.900	-47.176	
708.000	-46.110	
708.100	-54.082	
708.200	-52.905	
708.300	-51.197	
708.400	-46.584	
708.500	-55.907	
708.600	-53.430	
708.700	-42.241	
708.800	-45.657	
708.900	-66.768	
709.000	-48.709	
709.100	-48.967	
709.200	-61.490	
709.300	-62.013	
709.400	-39.914	
709.500	-68.762	
709.600	-53.674	
709.700	-49.731	
709.800	-44.409	
709.900	-40.734	
710.000	-61.122	
710.100	-53.875	
710.200	-66.085	
710.300	-39.519	
710.400	-56.602	
710.500	-36.893	
710.600	-48.767	
710.700	-55.285	
710.800	-60.097	
710.900	-47.918	
711.000	-47.249	
711.100	-53.689	
711.200	-39.470	
711.300	-53.429	
711.400	-50.133	
711.500	-56.183	
711.600	-58.640	
711.700	-45.855	
711.800	-54.288	
711.900	-47.156	
712.000	-55.780	
712.100	-46.573	
712.200	-47.796	
712.300	-46.181	
712.400	-49.103	
712.500	-44.970	
712.600	-40.454	
712.700	-49.864	
712.800	-45.505	
712.900	-48.978	
713.000	-48.892	
713.100	-52.654	
713.200	-63.706	
713.300	-43.949	
713.400	-46.814	
713.500	-40.337	
713.600	-65.314	
713.700	-49.974	
713.800	-43.064	
713.900	-61.142	
714.000	-51.775	
714.100	-53.177	
714.200	-49.824	
714.300	-50.812	
714.400	-56.363	
714.500	-39.427	
714.600	-56.203	
714.700	-51.949	
714.800	-43.549	
714.900	-54.027	
715.000	-52.083	
715.100	-50.798	
715.200	-60.839	
715.300	-36.195	
715.400	-51.067	
715.500	-38.905	
715.600	-47.822	
715.700	-59.799	
715.800	-43.994	
715.900	-58.091	
716.000	-44.765	
716.100	-37.915	
716.200	-53.351	
716.300	-46.084	
716.400	-41.554	
716.500	-61.905	
716.600	-53.818	
716.700	-32.455	
716.800	-43.426	
716.900	-48.660	
717.000	-46.383	
717.100	-58.036	
717.200	-53.036	
717.300	-49.396	
717.400	-46.443	
717.500	-51.442	
717.600	-45.671	
717.700	-49.657	
717.800	-60.329	
717.900	-49.009	
718.000	-46.925	
718.100	-50.437	
718.200	-60.818	
718.300	-45.662	
718.400	-34.593	
718.500	-54.665	
718.600	-53.749	
718.700	-42.837	
718.800	-43.549	
718.900	-42.726	
719.000	-63.369	
719.100	-42.009	
719.200	-40.363	
719.300	-38.624	
719.400	-61.174	
719.500	-35.837	
719.600	-44.251	
719.700	-50.268	
719.800	-44.798	
719.900	-51.303	
720.000	-45.979	
720.100	-46.403	
720.200	-48.230	
720.300	-38.829	
720.400	-62.284	
720.500	-53.902	
720.600	-47.311	
720.700	-52.357	
720.800	-34.050	
720.900	-45.283	
721.000	-44.398	
721.100	-36.331	
721.200	-45.519	
721.300	-55.282	
721.400	-50.166	
721.500	-40.593	
721.600	-38.943	
721.700	-39.702	
721.800	-50.331	
721.900	-40.498	
722.000	-47.671	
722.100	-39.880	
722.200	-63.601	
722.300	-44.355	
722.400	-40.642	
722.500	-43.992	
722.600	-35.385	
722.700	-43.607	
722.800	-53.078	
722.900	-48.654	
723.000	-52.103	
723.100	-42.740	
723.200	-50.321	
723.300	-31.414	
723.400	-49.159	
723.500	-42.679	
723.600	-30.085	
723.700	-56.888	
723.800	-48.839	
723.900	-23.251	
724.000	-41.227	
724.100	-48.020	
724.200	-38.876	
724.300	-47.454	
724.400	-40.060	
724.500	-39.193	
724.600	-43.079	
724.700	-47.333	
724.800	-48.773	
724.900	-43.348	
725.000	-42.968	
725.100	-44.257	
725.200	-45.480	
725.300	-37.707	
725.400	-64.876	
725.500	-35.068	
725.600	-35.275	
725.700	-43.379	
725.800	-43.372	
725.900	-34.203	
726.000	-46.313	
726.100	-52.117	
726.200	-40.249	
726.300	-37.719	
726.400	-36.710	
726.500	-38.695	
726.600	-35.897	
726.700	-50.261	
726.800	-39.206	
726.900	-35.128	
727.000	-43.986	
727.100	-45.838	
727.200	-51.636	
727.300	-25.374	
727.400	-28.948	
727.500	-29.468	
727.600	-32.129	
727.700	-54.161	
727.800	-42.471	
727.900	-59.861	
728.000	-43.159	
728.100	-32.337	
728.200	-32.257	
728.300	-60.401	
728.400	-40.786	
728.500	-41.859	
728.600	-36.875	
728.700	-40.145	
728.800	-28.369	
728.900	-63.058	
729.000	-32.595	
729.100	-41.894	
729.200	-43.467	
729.300	-42.501	
729.400	-44.786	
729.500	-32.701	
729.600	-32.766	
729.700	-44.414	
729.800	-40.071	
729.900	-55.113	
730.000	-32.120	
730.100	-38.396	
730.200	-29.177	
730.300	-31.261	
730.400	-43.513	
730.500	-42.714	
730.600	-33.198	
730.700	-42.298	
730.800	-36.148	
730.900	-29.339	
731.000	-43.519	
731.100	-35.127	
731.200	-42.482	
731.300	-43.227	
731.400	-46.489	
731.500	-23.040	
731.600	-28.601	
731.700	-47.386	
731.800	-41.171	
731.900	-27.909	
732.000	-25.571	
732.100	-41.400	
732.200	-43.008	
732.300	-42.868	
732.400	-54.962	
732.500	-34.137	
732.600	-43.592	
732.700	-48.532	
732.800	-22.282	
732.900	-49.643	
733.000	-41.022	
733.100	-51.985	
733.200	-45.930	
733.300	-27.342	
733.400	-48.107	
733.500	-24.320	
733.600	-40.295	
733.700	-29.935	
733.800	-41.715	
733.900	-39.472	
734.000	-33.916	
734.100	-49.789	
734.200	-34.103	
734.300	-44.010	
734.400	-29.729	
734.500	-33.465	
734.600	-46.048	
734.700	-33.154	
734.800	-36.927	
734.900	-50.772	
735.000	-26.264	
735.100	-42.765	
735.200	-32.959	
735.300	-22.820	
735.400	-35.696	
735.500	-30.988	
735.600	-34.767	
735.700	-52.100	
735.800	-29.607	
735.900	-36.042	
736.000	-28.839	
736.100	-32.823	
736.200	-30.760	
736.300	-31.318	
736.400	-37.748	
736.500	-48.801	
736.600	-26.129	
736.700	-41.817	
736.800	-53.475	
736.900	-35.559	
737.000	-16.370	
737.100	-35.802	
737.200	-31.954	
737.300	-39.898	
737.400	-17.210	
737.500	-41.715	
737.600	-28.052	
737.700	-33.895	
737.800	-47.017	
737.900	-38.501	
738.000	-40.876	
738.100	-27.168	
738.200	-20.303	
738.300	-38.205	
738.400	-32.412	
738.500	-33.386	
738.600	-29.919	
738.700	-19.327	
738.800	-29.840	
738.900	-47.542	
739.000	-34.549	
739.100	-34.446	
739.200	-52.015	
739.300	-31.110	
739.400	-36.599	
739.500	-33.196	
739.600	-31.264	
739.700	-12.952	
739.800	-45.332	
739.900	-48.091	
740.000	-32.521	
740.100	-46.435	
740.200	-33.931	
740.300	-12.873	
740.400	-23.355	
740.500	-39.398	
740.600	-33.911	
740.700	-29.330	
740.800	-35.826	
740.900	-32.712	
741.000	-28.246	
741.100	-36.896	
741.200	-30.826	
741.300	-36.258	
741.400	-39.381	
741.500	-34.712	
741.600	-39.451	
741.700	-39.691	
741.800	-29.197	
741.900	-27.424	
742.000	-29.184	
742.100	-48.756	
742.200	-36.978	
742.300	-40.795	
742.400	-24.482	
742.500	-27.202	
742.600	-38.689	
742.700	-30.863	
742.800	-17.158	
742.900	-20.016	
743.000	-22.660	
743.100	-30.025	
743.200	-30.097	
743.300	-30.257	
743.400	-38.587	
743.500	-31.629	
743.600	-34.602	
743.700	-27.081	
743.800	-28.433	
743.900	-20.904	
744.000	-32.024	
744.100	-29.055	
744.200	-33.127	
744.300	-25.070	
744.400	-35.409	
744.500	-23.783	
744.600	-32.179	
744.700	-23.960	
744.800	-29.899	
744.900	-27.666	
745.000	-39.288	
745.100	-26.088	
745.200	-32.892	
745.300	-29.564	
745.400	-33.800	
745.500	-22.936	
745.600	-26.788	
745.700	-34.890	
745.800	-39.232	
745.900	-26.045	
746.000	-29.305	
746.100	-46.343	
746.200	-35.366	
746.300	-26.730	
746.400	-23.234	
746.500	-34.606	
746.600	-33.880	
746.700	-30.540	
746.800	-27.014	
746.900	-27.719	
747.000	-41.326	
747.100	-24.950	
747.200	-29.216	
747.300	-36.072	
747.400	-40.852	
747.500	-39.521	
747.600	-19.221	
747.700	-32.886	
747.800	-43.907	
747.900	-25.550	
748.000	-35.961	
748.100	-37.508	
748.200	-37.484	
748.300	-34.189	
748.400	-21.156	
748.500	-30.869	
748.600	-27.527	
748.700	-34.528	
748.800	-28.877	
748.900	-32.242	
749.000	-25.119	
749.100	-24.587	
749.200	-30.038	
749.300	-32.415	
749.400	-23.354	
749.500	-39.157	
749.600	-21.825	
749.700	-42.951	
749.800	-22.454	
749.900	-33.547	
750.000	-39.065	
750.100	-37.992	
750.200	-19.827	
750.300	-36.223	
750.400	-24.103	
750.500	-37.069	
750.600	-37.264	
750.700	-34.486	
750.800	-17.996	
750.900	-32.043	
751.000	-22.834	
751.100	-26.753	
751.200	-33.735	
751.300	-20.338	
751.400	-13.972	
751.500	-47.964	
751.600	-24.995	
751.700	-40.652	
751.800	-16.704	
751.900	-24.240	
752.000	-12.989	
752.100	-35.215	
752.200	-33.414	
752.300	-20.947	
752.400	-35.667	
752.500	-21.720	
752.600	-29.988	
752.700	-33.722	
752.800	-27.388	
752.900	-21.702	
753.000	-25.823	
753.100	-37.865	
753.200	-23.578	
753.300	-19.897	
753.400	-44.074	
753.500	-33.400	
753.600	-43.396	
753.700	-9.529	
753.800	-32.269	
753.900	-38.464	
754.000	-16.647	
754.100	-25.065	
754.200	-15.743	
754.300	-22.794	
754.400	-21.248	
754.500	-22.200	
754.600	-27.711	
754.700	-20.277	
754.800	-35.722	
754.900	-13.288	
755.000	-28.159	
755.100	-33.255	
755.200	-23.490	
755.300	-30.622	
755.400	-16.035	
755.500	-32.906	
755.600	-27.596	
755.700	-29.242	
755.800	-28.830	
755.900	-32.470	
756.000	-18.860	
756.100	-37.120	
756.200	-26.686	
756.300	-40.412	
756.400	-31.740	
756.500	-18.372	
756.600	-39.077	
756.700	-32.216	
756.800	-30.279	
756.900	-27.969	
757.000	-35.668	
757.100	-25.277	
757.200	-34.279	
757.300	-17.500	
757.400	-49.939	
757.500	-38.547	
757.600	-26.464	
757.700	-21.662	
757.800	-27.464	
757.900	-21.265	
758.000	-15.734	
758.100	-36.226	
758.200	-30.048	
758.300	-22.185	
758.400	-25.995	
758.500	-22.354	
758.600	-10.346	
758.700	-36.337	
758.800	-36.455	
758.900	-29.797	
759.000	-26.591	
759.100	-23.794	
759.200	-36.009	
759.300	-25.497	
759.400	-28.664	
759.500	-30.111	
759.600	-24.800	
759.700	-27.017	
759.800	-28.082	
759.900	-29.846	
760.000	-21.365	
760.100	-31.303	
760.200	-11.842	
760.300	-24.420	
760.400	-22.418	
760.500	-38.508	
760.600	-25.732	
760.700	-37.036	
760.800	-13.208	
760.900	-45.839	
761.000	-17.105	
761.100	-22.048	
761.200	-15.417	
761.300	-37.347	
761.400	-27.017	
761.500	-35.483	
761.600	-34.042	
761.700	-11.239	
761.800	-19.245	
761.900	-24.402	
762.000	-31.599	
762.100	-30.798	
762.200	-20.355	
762.300	-26.995	
762.400	-28.718	
762.500	-45.606	
762.600	-27.914	
762.700	-31.188	
762.800	-32.255	
762.900	-38.676	
763.000	-24.195	
763.100	-36.297	
763.200	-37.295	
763.300	-16.049	
763.400	-28.357	
763.500	-15.715	
763.600	-26.855	
763.700	-33.330	
763.800	-25.975	
763.900	-28.153	
764.000	-25.754	
764.100	-40.037	
764.200	-20.296	
764.300	-24.877	
764.400	-21.943	
764.500	-23.566	
764.600	-24.428	
764.700	-21.111	
764.800	-18.605	
764.900	-21.815	
765.000	-24.205	
765.100	-26.935	
765.200	-12.313	
765.300	-21.463	
765.400	-21.736	
765.500	-27.285	
765.600	-28.702	
765.700	-15.137	
765.800	-25.967	
765.900	-25.470	
766.000	-20.021	
766.100	-15.599	
766.200	-23.430	
766.300	-32.061	
766.400	-22.090	
766.500	-12.631	
766.600	-19.003	
766.700	-25.592	
766.800	-23.990	
766.900	-39.265	
767.000	-21.862	
767.100	-17.135	
767.200	-30.504	
767.300	-23.369	
767.400	-30.218	
767.500	-17.959	
767.600	-39.093	
767.700	-15.341	
767.800	-23.134	
767.900	-36.946	
768.000	-19.990	
768.100	-22.563	
768.200	-36.482	
768.300	-32.508	
768.400	-34.318	
768.500	-26.980	
768.600	-25.179	
768.700	-12.426	
768.800	-23.417	
768.900	-27.260	
769.000	-22.654	
769.100	-25.058	
769.200	-37.790	
769.300	-9.840	
769.400	-28.137	
769.500	-26.078	
769.600	-21.809	
769.700	-9.100	
769.800	-27.451	
769.900	-23.105	
770.000	-28.684	
770.100	-40.935	
770.200	-14.077	
770.300	-25.681	
770.400	-27.581	
770.500	-30.322	
770.600	-12.949	
770.700	-17.389	
770.800	-33.691	
770.900	-26.121	
771.000	-27.990	
771.100	-15.764	
771.200	-36.428	
771.300	-25.916	
771.400	-27.734	
771.500	-17.910	
771.600	-27.586	
771.700	-13.805	
771.800	-36.225	
771.900	-33.408	
772.000	-7.997	
772.100	-27.101	
772.200	-18.259	
772.300	-27.979	
772.400	-23.201	
772.500	-23.748	
772.600	-43.998	
772.700	-16.485	
772.800	-14.359	
772.900	-32.617	
773.000	-21.631	
773.100	-31.943	
773.200	-9.210	
773.300	-14.210	
773.400	-36.020	
773.500	-25.003	
773.600	-29.356	
773.700	-22.493	
773.800	-25.261	
773.900	-19.195	
774.000	-18.628	
774.100	-41.463	
774.200	-17.473	
774.300	-18.297	
774.400	-15.430	
774.500	-19.607	
774.600	-28.617	
774.700	-25.960	
774.800	-26.732	
774.900	-38.530	
775.000	-14.304	
775.100	-20.948	
775.200	-13.706	
775.300	-29.258	
775.400	-34.439	
775.500	-31.885	
775.600	-22.465	
775.700	-8.706	
775.800	-29.699	
775.900	-28.493	
776.000	-20.496	
776.100	-18.505	
776.200	-24.305	
776.300	-18.792	
776.400	-21.303	
776.500	-29.075	
776.600	-14.166	
776.700	-34.909	
776.800	-20.163	
776.900	-33.821	
777.000	-19.195	
777.100	-20.385	
777.200	-24.735	
777.300	-33.294	
777.400	-25.475	
777.500	-19.206	
777.600	-28.275	
777.700	-23.989	
777.800	-26.494	
777.900	-20.699	
778.000	-21.215	
778.100	-22.241	
778.200	-32.861	
778.300	-25.077	
778.400	-29.583	
778.500	-23.920	
778.600	-24.716	
778.700	-5.520	
778.800	-27.874	
778.900	-30.356	
779.000	-28.093	
779.100	-27.888	
779.200	-21.827	
779.300	-27.312	
779.400	-24.464	
779.500	-22.441	
779.600	-28.647	
779.700	10.314	
779.800	-5.183	
779.900	11.396	
780.000	53.600	
780.100	34.829	
780.200	28.981	
780.300	48.087	
780.400	41.013	
780.500	39.625	
780.600	53.627	
780.700	39.585	
780.800	53.197	
780.900	52.453	
781.000	33.100	
781.100	50.639	
781.200	54.329	
781.300	41.830	
781.400	39.617	
781.500	47.733	
781.600	40.380	
781.700	48.871	
781.800	43.823	
781.900	48.431	
782.000	55.885	
782.100	53.145	
782.200	35.212	
782.300	40.750	
782.400	44.481	
782.500	51.832	
782.600	53.649	
782.700	41.442	
782.800	37.029	
782.900	45.876	
783.000	38.176	
783.100	35.498	
783.200	33.073	
783.300	42.376	
783.400	31.589	
783.500	49.288	
783.600	47.157	
783.700	35.812	
783.800	38.036	
783.900	31.589	
784.000	25.287	
784.100	44.454	
784.200	42.559	
784.300	22.505	
784.400	37.511	
784.500	47.470	
784.600	41.446	
784.700	47.051	
784.800	47.748	
784.900	45.438	
785.000	42.892	
785.100	42.592	
785.200	59.842	
785.300	43.942	
785.400	59.029	
785.500	39.728	
785.600	57.202	
785.700	42.322	
785.800	59.078	
785.900	55.648	
786.000	58.437	
786.100	56.151	
786.200	65.279	
786.300	56.605	
786.400	54.557	
786.500	62.362	
786.600	65.824	
786.700	66.348	
786.800	69.754	
786.900	69.949	
787.000	56.556	
787.100	59.442	
787.200	72.498	
787.300	79.493	
787.400	66.514	
787.500	78.411	
787.600	67.417	
787.700	69.532	
787.800	74.548	
787.900	70.558	
788.000	72.901	
788.100	71.137	
788.200	75.518	
788.300	72.691	
788.400	76.167	
788.500	59.981	
788.600	76.433	
788.700	74.137	
788.800	72.252	
788.900	75.126	
789.000	68.779	
789.100	69.924	
789.200	81.632	
789.300	87.477	
789.400	72.896	
789.500	71.261	
789.600	74.544	
789.700	78.665	
789.800	76.168	
789.900	65.603	
790.000	82.611	
790.100	82.024	
790.200	81.866	
790.300	65.791	
790.400	72.635	
790.500	66.888	
790.600	84.634	
790.700	85.691	
790.800	68.359	
790.900	68.243	
791.000	83.215	
791.100	74.824	
791.200	75.145	
791.300	85.946	
791.400	79.171	
791.500	71.718	
791.600	81.569	
791.700	67.320	
791.800	56.704	
791.900	66.060	
792.000	80.071	
792.100	86.130	
792.200	79.773	
792.300	75.326	
792.400	71.747	
792.500	75.033	
792.600	77.331	
792.700	71.313	
792.800	73.124	
792.900	72.584	
793.000	77.562	
793.100	76.793	
793.200	71.952	
793.300	82.919	
793.400	59.524	
793.500	81.255	
793.600	81.503	
793.700	71.928	
793.800	73.430	
793.900	64.953	
794.000	78.742	
794.100	59.747	
794.200	73.154	
794.300	79.410	
794.400	73.389	
794.500	74.410	
794.600	67.286	
794.700	74.773	
794.800	83.941	
794.900	68.035	
795.000	60.085	
795.100	56.902	
795.200	71.130	
795.300	82.624	
795.400	55.796	
795.500	74.413	
795.600	78.228	
795.700	67.576	
795.800	78.401	
795.900	72.837	
796.000	80.836	
796.100	67.450	
796.200	66.576	
796.300	72.127	
796.400	61.903	
796.500	74.167	
796.600	71.741	
796.700	69.601	
796.800	64.836	
796.900	62.567	
797.000	85.189	
797.100	86.759	
797.200	67.665	
797.300	78.189	
797.400	67.824	
797.500	83.234	
797.600	70.659	
797.700	69.912	
797.800	63.119	
797.900	68.338	
798.000	60.518	
798.100	68.223	
798.200	73.554	
798.300	63.845	
798.400	64.818	
798.500	71.212	
798.600	63.037	
798.700	71.143	
798.800	64.053	
798.900	71.096	
799.000	63.125	
799.100	77.805	
799.200	66.113	
799.300	59.495	
799.400	80.642	
799.500	64.875	
799.600	75.519	
799.700	61.215	
799.800	65.811	
799.900	68.679	
800.000	64.901	
