time /s	I /nA	
0.100	0.437	
0.200	-9.047	
0.300	0.256	
0.400	-11.920	
0.500	-3.894	
0.600	-4.185	
0.700	1.350	
0.800	-8.896	
0.900	-12.659	
1.000	-12.974	
1.100	3.286	
1.200	4.156	
1.300	-26.309	
1.400	-8.794	
1.500	-5.845	
1.600	2.511	
1.700	-13.375	
1.800	-7.975	
1.900	-10.310	
2.000	-17.164	
2.100	5.573	
2.200	-6.735	
2.300	-29.910	
2.400	-14.811	
2.500	-5.531	
2.600	-2.102	
2.700	-4.688	
2.800	0.564	
2.900	-5.639	
3.000	-1.746	
3.100	-21.909	
3.200	-13.872	
3.300	-12.505	
3.400	-12.688	
3.500	-11.384	
3.600	-11.396	
3.700	-4.982	
3.800	-7.426	
3.900	2.680	
4.000	-7.949	
4.100	-20.485	
4.200	-12.605	
4.300	-9.302	
4.400	-14.449	
4.500	-7.961	
4.600	-12.759	
4.700	-26.488	
4.800	-12.315	
4.900	-6.407	
5.000	6.564	
5.100	-18.355	
5.200	-12.874	
5.300	-8.299	
5.400	-4.298	
5.500	-9.357	
5.600	-8.379	
5.700	-20.629	
5.800	3.298	
5.900	-14.754	
6.000	-13.441	
6.100	-1.425	
6.200	-16.642	
6.300	-3.327	
6.400	-6.570	
6.500	-8.005	
6.600	-17.295	
6.700	-17.978	
6.800	4.184	
6.900	-10.774	
7.000	-17.506	
7.100	-8.528	
7.200	10.351	
7.300	-7.921	
7.400	-16.977	
7.500	0.578	
7.600	-18.823	
7.700	-0.854	
7.800	-10.012	
7.900	-14.982	
8.000	-7.837	
8.100	-13.719	
8.200	10.284	
8.300	-9.373	
8.400	-19.043	
8.500	-13.181	
8.600	-13.130	
8.700	-14.312	
8.800	-4.264	
8.900	0.919	
9.000	-3.754	
9.100	-9.279	
9.200	-4.625	
9.300	-4.472	
9.400	-20.601	
9.500	-0.867	
9.600	-4.560	
9.700	-8.658	
9.800	-3.603	
9.900	-19.643	
10.000	-6.168	
10.100	-16.933	
10.200	-3.585	
10.300	-22.794	
10.400	-12.464	
10.500	-13.281	
10.600	-2.354	
10.700	-15.577	
10.800	-8.420	
10.900	-1.514	
11.000	-7.377	
11.100	-23.372	
11.200	-11.239	
11.300	-9.947	
11.400	9.173	
11.500	-14.306	
11.600	-10.567	
11.700	-12.283	
11.800	-3.655	
11.900	-11.803	
12.000	-12.907	
12.100	-30.263	
12.200	-15.432	
12.300	-14.444	
12.400	4.918	
12.500	-8.174	
12.600	-11.165	
12.700	-17.358	
12.800	-0.032	
12.900	-6.938	
13.000	5.680	
13.100	-7.991	
13.200	-25.179	
13.300	-5.076	
13.400	-18.129	
13.500	-6.300	
13.600	-6.115	
13.700	-23.898	
13.800	-4.389	
13.900	4.277	
14.000	-15.422	
14.100	-9.218	
14.200	-26.940	
14.300	-6.966	
14.400	-5.709	
14.500	-6.127	
14.600	-21.075	
14.700	-5.069	
14.800	-17.689	
14.900	-7.845	
15.000	2.058	
15.100	-11.705	
15.200	-3.987	
15.300	-18.313	
15.400	-9.342	
15.500	-9.612	
15.600	-10.622	
15.700	-13.379	
15.800	-9.383	
15.900	-8.249	
16.000	-11.856	
16.100	-3.569	
16.200	-15.988	
16.300	-14.042	
16.400	-11.676	
16.500	2.500	
16.600	-22.686	
16.700	-8.556	
16.800	-8.278	
16.900	-2.610	
17.000	-10.471	
17.100	-7.092	
17.200	-10.082	
17.300	-0.597	
17.400	-10.599	
17.500	-7.881	
17.600	-7.604	
17.700	1.832	
17.800	4.414	
17.900	-16.234	
18.000	-19.946	
18.100	4.241	
18.200	0.461	
18.300	-25.160	
18.400	1.447	
18.500	-8.229	
18.600	3.893	
18.700	-11.542	
18.800	-11.868	
18.900	-18.798	
19.000	-5.781	
19.100	-16.888	
19.200	-8.045	
19.300	3.722	
19.400	-13.212	
19.500	-8.140	
19.600	-1.247	
19.700	-22.102	
19.800	-3.708	
19.900	-16.217	
20.000	-11.033	
20.100	-1.534	
20.200	-13.229	
20.300	-9.300	
20.400	-19.990	
20.500	-8.435	
20.600	-22.126	
20.700	2.803	
20.800	-17.657	
20.900	-9.290	
21.000	-0.318	
21.100	-8.752	
21.200	-13.625	
21.300	-11.455	
21.400	0.172	
21.500	-6.872	
21.600	-8.962	
21.700	-12.340	
21.800	-10.315	
21.900	-20.093	
22.000	-9.727	
22.100	-15.426	
22.200	-2.038	
22.300	-9.762	
22.400	-16.207	
22.500	-9.289	
22.600	-3.698	
22.700	-24.464	
22.800	-1.575	
22.900	-11.628	
23.000	-13.382	
23.100	-7.602	
23.200	0.187	
23.300	-16.319	
23.400	-5.925	
23.500	-16.120	
23.600	-8.034	
23.700	-2.269	
23.800	-10.241	
23.900	-5.589	
24.000	-9.820	
24.100	-18.802	
24.200	-2.341	
24.300	-7.995	
24.400	-10.626	
24.500	-25.696	
24.600	-22.551	
24.700	-8.534	
24.800	-16.592	
24.900	-0.631	
25.000	5.464	
25.100	-18.283	
25.200	-15.010	
25.300	-14.568	
25.400	-1.333	
25.500	-18.579	
25.600	-6.205	
25.700	-7.630	
25.800	-6.182	
25.900	-3.810	
26.000	-14.986	
26.100	-11.541	
26.200	0.931	
26.300	-4.807	
26.400	-12.242	
26.500	-3.854	
26.600	-23.570	
26.700	-10.498	
26.800	6.222	
26.900	-9.353	
27.000	3.615	
27.100	-15.814	
27.200	-12.288	
27.300	-6.674	
27.400	-11.566	
27.500	-9.011	
27.600	-12.086	
27.700	1.698	
27.800	15.395	
27.900	-4.928	
28.000	-15.156	
28.100	-1.831	
28.200	-6.699	
28.300	3.635	
28.400	-11.434	
28.500	-13.861	
28.600	-10.774	
28.700	-5.372	
28.800	-18.236	
28.900	-7.339	
29.000	-17.263	
29.100	-5.579	
29.200	-4.350	
29.300	-10.855	
29.400	-15.638	
29.500	-5.867	
29.600	3.033	
29.700	-3.295	
29.800	5.602	
29.900	0.182	
30.000	2.791	
30.100	-2.561	
30.200	5.494	
30.300	0.466	
30.400	5.935	
30.500	3.072	
30.600	13.018	
30.700	6.526	
30.800	5.024	
30.900	1.837	
31.000	-6.599	
31.100	14.398	
31.200	16.605	
31.300	9.201	
31.400	14.384	
31.500	2.003	
31.600	34.446	
31.700	31.908	
31.800	40.087	
31.900	7.878	
32.000	25.369	
32.100	19.249	
32.200	10.611	
32.300	21.745	
32.400	30.097	
32.500	25.505	
32.600	14.661	
32.700	15.865	
32.800	22.252	
32.900	26.013	
33.000	32.218	
33.100	18.273	
33.200	22.934	
33.300	17.034	
33.400	28.283	
33.500	25.626	
33.600	-0.762	
33.700	26.210	
33.800	14.902	
33.900	20.598	
34.000	29.422	
34.100	21.306	
34.200	26.395	
34.300	15.190	
34.400	14.828	
34.500	20.741	
34.600	31.023	
34.700	13.717	
34.800	14.706	
34.900	32.995	
35.000	18.963	
35.100	26.649	
35.200	8.330	
35.300	20.983	
35.400	6.211	
35.500	33.966	
35.600	0.319	
35.700	30.453	
35.800	31.056	
35.900	27.870	
36.000	10.342	
36.100	20.588	
36.200	13.375	
36.300	20.817	
36.400	21.814	
36.500	10.999	
36.600	8.835	
36.700	10.748	
36.800	15.403	
36.900	27.907	
37.000	16.785	
37.100	17.449	
37.200	9.468	
37.300	13.848	
37.400	16.232	
37.500	9.506	
37.600	32.774	
37.700	25.050	
37.800	11.567	
37.900	13.739	
38.000	22.157	
38.100	17.117	
38.200	16.464	
38.300	6.818	
38.400	18.056	
38.500	26.679	
38.600	20.028	
38.700	10.279	
38.800	20.625	
38.900	2.241	
39.000	7.563	
39.100	20.067	
39.200	9.530	
39.300	17.309	
39.400	18.597	
39.500	-0.520	
39.600	18.031	
39.700	18.466	
39.800	14.253	
39.900	10.442	
40.000	16.711	
40.100	23.355	
40.200	20.890	
40.300	25.596	
40.400	17.832	
40.500	13.929	
40.600	15.902	
40.700	20.000	
40.800	30.516	
40.900	14.234	
41.000	18.390	
41.100	22.983	
41.200	9.983	
41.300	23.486	
41.400	7.000	
41.500	19.562	
41.600	34.188	
41.700	11.520	
41.800	15.703	
41.900	21.163	
42.000	27.774	
42.100	12.459	
42.200	6.572	
42.300	28.540	
42.400	12.273	
42.500	25.142	
42.600	18.528	
42.700	27.181	
42.800	17.843	
42.900	5.285	
43.000	19.806	
43.100	24.420	
43.200	2.477	
43.300	15.681	
43.400	27.596	
43.500	20.793	
43.600	16.760	
43.700	14.550	
43.800	26.199	
43.900	21.369	
44.000	17.085	
44.100	-0.156	
44.200	21.927	
44.300	21.111	
44.400	30.510	
44.500	20.328	
44.600	15.302	
44.700	19.098	
44.800	20.473	
44.900	15.811	
45.000	8.329	
45.100	26.893	
45.200	26.219	
45.300	17.416	
45.400	15.738	
45.500	11.924	
45.600	15.611	
45.700	31.025	
45.800	22.785	
45.900	27.578	
46.000	30.429	
46.100	13.377	
46.200	11.345	
46.300	7.197	
46.400	24.794	
46.500	29.282	
46.600	22.413	
46.700	9.161	
46.800	31.980	
46.900	25.406	
47.000	20.477	
47.100	20.240	
47.200	27.061	
47.300	23.248	
47.400	21.073	
47.500	20.251	
47.600	22.654	
47.700	12.459	
47.800	24.016	
47.900	-0.729	
48.000	33.237	
48.100	14.841	
48.200	33.475	
48.300	25.963	
48.400	25.864	
48.500	17.427	
48.600	14.091	
48.700	34.322	
48.800	25.534	
48.900	7.964	
49.000	28.281	
49.100	23.932	
49.200	19.117	
49.300	25.513	
49.400	16.617	
49.500	33.028	
49.600	22.414	
49.700	13.772	
49.800	28.835	
49.900	27.280	
50.000	20.400	
50.100	22.032	
50.200	25.926	
50.300	26.085	
50.400	20.081	
50.500	31.832	
50.600	23.045	
50.700	29.864	
50.800	10.186	
50.900	19.099	
51.000	23.818	
51.100	23.682	
51.200	29.412	
51.300	38.138	
51.400	28.973	
51.500	31.062	
51.600	23.655	
51.700	26.100	
51.800	23.617	
51.900	12.950	
52.000	39.595	
52.100	27.054	
52.200	36.248	
52.300	17.736	
52.400	25.027	
52.500	39.081	
52.600	1.768	
52.700	21.492	
52.800	29.860	
52.900	25.432	
53.000	28.142	
53.100	42.849	
53.200	16.131	
53.300	17.595	
53.400	24.978	
53.500	47.517	
53.600	16.870	
53.700	27.617	
53.800	17.906	
53.900	26.787	
54.000	30.011	
54.100	23.026	
54.200	30.361	
54.300	30.283	
54.400	44.073	
54.500	26.597	
54.600	26.522	
54.700	42.152	
54.800	33.695	
54.900	18.874	
55.000	35.033	
55.100	35.008	
55.200	32.722	
55.300	27.237	
55.400	31.035	
55.500	30.613	
55.600	36.180	
55.700	29.114	
55.800	29.202	
55.900	29.602	
56.000	37.555	
56.100	29.840	
56.200	29.779	
56.300	32.261	
56.400	24.208	
56.500	46.167	
56.600	33.761	
56.700	26.780	
56.800	31.598	
56.900	16.353	
57.000	36.646	
57.100	21.616	
57.200	30.121	
57.300	36.129	
57.400	30.735	
57.500	30.141	
57.600	23.856	
57.700	29.513	
57.800	30.454	
57.900	45.626	
58.000	38.325	
58.100	40.240	
58.200	22.521	
58.300	49.248	
58.400	35.934	
58.500	33.875	
58.600	51.178	
58.700	48.808	
58.800	38.272	
58.900	33.608	
59.000	43.811	
59.100	41.089	
59.200	36.788	
59.300	25.530	
59.400	37.422	
59.500	32.108	
59.600	35.889	
59.700	35.602	
59.800	36.651	
59.900	34.663	
60.000	58.317	
60.100	58.613	
60.200	43.964	
60.300	36.947	
60.400	30.392	
60.500	40.131	
60.600	24.028	
60.700	36.162	
60.800	44.336	
60.900	33.228	
61.000	37.065	
61.100	33.126	
61.200	34.387	
61.300	52.935	
61.400	39.069	
61.500	43.319	
61.600	50.024	
61.700	35.987	
61.800	58.569	
61.900	29.656	
62.000	45.813	
62.100	45.303	
62.200	29.436	
62.300	38.051	
62.400	56.826	
62.500	46.492	
62.600	49.159	
62.700	38.717	
62.800	56.836	
62.900	44.052	
63.000	55.115	
63.100	28.391	
63.200	33.110	
63.300	63.021	
63.400	36.626	
63.500	51.493	
63.600	30.167	
63.700	48.623	
63.800	50.562	
63.900	38.549	
64.000	43.294	
64.100	52.169	
64.200	44.198	
64.300	54.516	
64.400	36.179	
64.500	52.938	
64.600	44.536	
64.700	47.240	
64.800	42.751	
64.900	45.768	
65.000	47.702	
65.100	35.640	
65.200	45.592	
65.300	54.884	
65.400	53.069	
65.500	41.615	
65.600	34.563	
65.700	47.153	
65.800	38.244	
65.900	45.078	
66.000	49.994	
66.100	53.335	
66.200	43.473	
66.300	40.211	
66.400	41.826	
66.500	30.819	
66.600	54.217	
66.700	59.744	
66.800	45.279	
66.900	51.489	
67.000	37.981	
67.100	42.413	
67.200	34.102	
67.300	53.063	
67.400	42.901	
67.500	50.672	
67.600	38.072	
67.700	68.404	
67.800	38.024	
67.900	59.370	
68.000	34.749	
68.100	49.448	
68.200	35.225	
68.300	37.169	
68.400	43.705	
68.500	47.538	
68.600	37.220	
68.700	73.713	
68.800	44.954	
68.900	58.128	
69.000	43.931	
69.100	41.665	
69.200	51.094	
69.300	33.285	
69.400	52.605	
69.500	49.923	
69.600	53.844	
69.700	26.067	
69.800	56.747	
69.900	47.645	
70.000	41.887	
70.100	51.459	
70.200	50.051	
70.300	45.023	
70.400	39.024	
70.500	47.569	
70.600	43.562	
70.700	37.065	
70.800	32.185	
70.900	38.008	
71.000	62.158	
71.100	40.177	
71.200	41.548	
71.300	41.228	
71.400	48.333	
71.500	54.943	
71.600	36.522	
71.700	62.471	
71.800	51.943	
71.900	30.897	
72.000	48.926	
72.100	37.784	
72.200	50.431	
72.300	61.211	
72.400	39.596	
72.500	58.312	
72.600	42.911	
72.700	45.646	
72.800	52.147	
72.900	40.356	
73.000	63.234	
73.100	51.663	
73.200	47.671	
73.300	43.583	
73.400	54.091	
73.500	26.056	
73.600	45.098	
73.700	50.534	
73.800	46.859	
73.900	40.819	
74.000	45.534	
74.100	44.298	
74.200	31.465	
74.300	44.513	
74.400	52.366	
74.500	51.992	
74.600	40.964	
74.700	31.325	
74.800	45.267	
74.900	47.854	
75.000	22.415	
75.100	53.101	
75.200	67.585	
75.300	50.870	
75.400	62.945	
75.500	42.748	
75.600	46.804	
75.700	57.655	
75.800	45.973	
75.900	43.100	
76.000	27.878	
76.100	50.531	
76.200	46.506	
76.300	41.056	
76.400	47.076	
76.500	53.550	
76.600	39.711	
76.700	50.260	
76.800	50.281	
76.900	35.240	
77.000	45.127	
77.100	41.423	
77.200	48.827	
77.300	42.622	
77.400	46.223	
77.500	48.756	
77.600	38.100	
77.700	53.552	
77.800	46.704	
77.900	43.468	
78.000	50.409	
78.100	35.314	
78.200	44.704	
78.300	46.404	
78.400	47.911	
78.500	39.994	
78.600	46.213	
78.700	30.217	
78.800	59.439	
78.900	56.033	
79.000	45.101	
79.100	48.094	
79.200	31.598	
79.300	39.507	
79.400	44.137	
79.500	58.647	
79.600	44.800	
79.700	46.811	
79.800	35.822	
79.900	32.600	
80.000	50.240	
80.100	51.070	
80.200	49.471	
80.300	33.306	
80.400	33.789	
80.500	42.265	
80.600	30.411	
80.700	50.048	
80.800	41.771	
80.900	45.175	
81.000	46.691	
81.100	39.500	
81.200	37.919	
81.300	41.573	
81.400	41.876	
81.500	42.780	
81.600	49.655	
81.700	28.938	
81.800	36.039	
81.900	53.695	
82.000	42.560	
82.100	39.907	
82.200	44.138	
82.300	48.746	
82.400	51.031	
82.500	58.012	
82.600	40.100	
82.700	32.759	
82.800	34.673	
82.900	44.107	
83.000	54.369	
83.100	28.310	
83.200	45.785	
83.300	29.831	
83.400	67.454	
83.500	43.248	
83.600	35.245	
83.700	36.067	
83.800	35.325	
83.900	37.276	
84.000	50.449	
84.100	22.561	
84.200	36.107	
84.300	42.611	
84.400	38.455	
84.500	40.673	
84.600	50.022	
84.700	26.252	
84.800	43.958	
84.900	37.602	
85.000	43.722	
85.100	39.746	
85.200	53.197	
85.300	36.348	
85.400	48.895	
85.500	25.379	
85.600	49.048	
85.700	32.104	
85.800	56.251	
85.900	61.868	
86.000	41.482	
86.100	40.404	
86.200	15.905	
86.300	46.378	
86.400	44.695	
86.500	39.775	
86.600	40.869	
86.700	46.082	
86.800	31.749	
86.900	44.394	
87.000	39.771	
87.100	24.330	
87.200	50.048	
87.300	35.084	
87.400	40.774	
87.500	39.840	
87.600	43.776	
87.700	50.660	
87.800	42.547	
87.900	44.830	
88.000	32.459	
88.100	37.271	
88.200	29.639	
88.300	33.333	
88.400	44.564	
88.500	40.882	
88.600	44.279	
88.700	39.247	
88.800	38.034	
88.900	36.932	
89.000	40.898	
89.100	49.221	
89.200	35.726	
89.300	38.355	
89.400	22.166	
89.500	38.183	
89.600	33.141	
89.700	36.981	
89.800	54.113	
89.900	46.748	
90.000	27.014	
90.100	28.761	
90.200	35.843	
90.300	38.406	
90.400	31.021	
90.500	15.322	
90.600	25.116	
90.700	20.341	
90.800	25.843	
90.900	28.955	
91.000	3.305	
91.100	27.020	
91.200	5.901	
91.300	13.451	
91.400	18.755	
91.500	18.884	
91.600	6.450	
91.700	9.259	
91.800	9.825	
91.900	4.486	
92.000	14.866	
92.100	6.393	
92.200	11.279	
92.300	-10.365	
92.400	7.162	
92.500	-3.419	
92.600	25.192	
92.700	1.108	
92.800	13.549	
92.900	9.124	
93.000	0.127	
93.100	1.675	
93.200	6.559	
93.300	-3.457	
93.400	11.899	
93.500	11.331	
93.600	-8.526	
93.700	-13.480	
93.800	-11.230	
93.900	2.178	
94.000	-11.810	
94.100	20.785	
94.200	-6.377	
94.300	-5.314	
94.400	-10.965	
94.500	0.733	
94.600	6.973	
94.700	-8.366	
94.800	-4.217	
94.900	0.412	
95.000	11.929	
95.100	-10.556	
95.200	-11.737	
95.300	-4.120	
95.400	7.450	
95.500	1.226	
95.600	-1.477	
95.700	2.557	
95.800	-2.667	
95.900	-0.094	
96.000	-2.339	
96.100	-5.150	
96.200	-12.440	
96.300	-0.133	
96.400	-7.598	
96.500	-12.834	
96.600	6.389	
96.700	5.991	
96.800	7.757	
96.900	-17.011	
97.000	-3.575	
97.100	-20.291	
97.200	-9.706	
97.300	3.181	
97.400	-11.230	
97.500	-3.631	
97.600	-12.174	
97.700	10.438	
97.800	-1.833	
97.900	-1.366	
98.000	-14.108	
98.100	9.252	
98.200	-9.617	
98.300	0.107	
98.400	3.139	
98.500	-9.456	
98.600	-5.034	
98.700	-9.361	
98.800	-3.880	
98.900	-2.510	
99.000	5.075	
99.100	15.113	
99.200	-4.516	
99.300	-15.788	
99.400	-8.010	
99.500	0.891	
99.600	0.928	
99.700	7.490	
99.800	9.483	
99.900	-13.494	
100.000	-7.917	
100.100	2.291	
100.200	-0.024	
100.300	-12.099	
100.400	-3.839	
100.500	-8.079	
100.600	3.543	
100.700	-7.146	
100.800	-6.170	
100.900	-0.964	
101.000	10.022	
101.100	3.455	
101.200	-7.740	
101.300	-4.165	
101.400	-3.358	
101.500	2.272	
101.600	-2.184	
101.700	-3.383	
101.800	-8.816	
101.900	-6.127	
102.000	1.140	
102.100	9.551	
102.200	4.228	
102.300	-3.711	
102.400	-11.647	
102.500	-9.451	
102.600	-3.294	
102.700	-0.790	
102.800	-5.377	
102.900	7.145	
103.000	-4.623	
103.100	-3.485	
103.200	4.200	
103.300	0.360	
103.400	1.164	
103.500	-14.596	
103.600	-8.434	
103.700	-5.205	
103.800	-12.378	
103.900	-22.222	
104.000	2.418	
104.100	-13.361	
104.200	14.854	
104.300	-15.877	
104.400	2.126	
104.500	-2.448	
104.600	4.140	
104.700	-5.532	
104.800	2.853	
104.900	-22.143	
105.000	2.302	
105.100	-2.467	
105.200	-20.551	
105.300	10.673	
105.400	5.693	
105.500	-10.745	
105.600	-4.861	
105.700	4.213	
105.800	-21.322	
105.900	-6.757	
106.000	-4.773	
106.100	1.246	
106.200	-14.050	
106.300	1.635	
106.400	-10.809	
106.500	-7.856	
106.600	-6.078	
106.700	-7.130	
106.800	0.663	
106.900	-9.653	
107.000	-0.002	
107.100	-10.933	
107.200	-7.461	
107.300	4.541	
107.400	-5.364	
107.500	-15.245	
107.600	-19.008	
107.700	5.219	
107.800	-18.249	
107.900	0.458	
108.000	2.703	
108.100	7.542	
108.200	-17.580	
108.300	-15.438	
108.400	6.413	
108.500	-5.372	
108.600	-4.250	
108.700	-1.987	
108.800	-12.055	
108.900	10.563	
109.000	0.382	
109.100	-8.892	
109.200	-15.799	
109.300	1.600	
109.400	-14.439	
109.500	-1.692	
109.600	-7.186	
109.700	-8.902	
109.800	-17.478	
109.900	-19.146	
110.000	-7.261	
110.100	-3.130	
110.200	-14.554	
110.300	-4.937	
110.400	-10.159	
110.500	-9.860	
110.600	-19.484	
110.700	0.999	
110.800	-8.776	
110.900	1.550	
111.000	-4.063	
111.100	-10.519	
111.200	-7.090	
111.300	-6.790	
111.400	5.849	
111.500	-3.606	
111.600	-3.580	
111.700	-10.258	
111.800	-20.490	
111.900	-5.560	
112.000	-2.992	
112.100	-5.075	
112.200	-3.529	
112.300	-5.719	
112.400	-13.638	
112.500	-1.647	
112.600	-9.598	
112.700	-14.562	
112.800	-7.384	
112.900	-14.321	
113.000	-1.852	
113.100	-12.572	
113.200	-11.369	
113.300	-3.342	
113.400	-14.521	
113.500	-9.895	
113.600	-9.825	
113.700	-12.845	
113.800	-4.921	
113.900	-2.418	
114.000	9.527	
114.100	-8.580	
114.200	-12.981	
114.300	1.585	
114.400	-9.062	
114.500	-9.778	
114.600	-10.775	
114.700	-5.555	
114.800	-7.286	
114.900	-15.026	
115.000	-7.556	
115.100	-16.441	
115.200	-21.887	
115.300	-16.625	
115.400	-12.299	
115.500	-14.690	
115.600	-7.545	
115.700	-14.508	
115.800	-11.968	
115.900	-1.060	
116.000	-1.965	
116.100	-9.305	
116.200	-25.979	
116.300	0.399	
116.400	-0.674	
116.500	-5.579	
116.600	-15.162	
116.700	-5.244	
116.800	-1.898	
116.900	-8.660	
117.000	0.134	
117.100	-3.915	
117.200	-19.678	
117.300	2.021	
117.400	-17.195	
117.500	-2.400	
117.600	-4.421	
117.700	-30.506	
117.800	-10.135	
117.900	-1.334	
118.000	-14.969	
118.100	-14.884	
118.200	-10.899	
118.300	-29.870	
118.400	-9.970	
118.500	-9.607	
118.600	-14.593	
118.700	-18.053	
118.800	-27.294	
118.900	-18.163	
119.000	-26.408	
119.100	1.473	
119.200	-9.662	
119.300	-12.918	
119.400	-6.582	
119.500	-7.379	
119.600	-12.494	
119.700	-9.319	
119.800	-19.750	
119.900	-28.850	
120.000	-15.894	
120.100	-10.173	
120.200	-8.198	
120.300	-12.228	
120.400	-22.759	
120.500	-3.593	
120.600	-22.490	
120.700	-22.328	
120.800	-25.645	
120.900	-14.190	
121.000	-10.413	
121.100	-18.105	
121.200	-7.355	
121.300	-10.479	
121.400	-10.074	
121.500	-5.322	
121.600	0.665	
121.700	-26.933	
121.800	-18.545	
121.900	-14.086	
122.000	-18.318	
122.100	-8.268	
122.200	-6.979	
122.300	-20.022	
122.400	-14.462	
122.500	-17.273	
122.600	-2.874	
122.700	-8.591	
122.800	-15.077	
122.900	-14.340	
123.000	-20.193	
123.100	-13.639	
123.200	-25.372	
123.300	-16.142	
123.400	-17.721	
123.500	-22.996	
123.600	-13.532	
123.700	-7.024	
123.800	-22.598	
123.900	-12.797	
124.000	-27.089	
124.100	-2.984	
124.200	-21.548	
124.300	-20.225	
124.400	-25.210	
124.500	-24.280	
124.600	-16.393	
124.700	-3.021	
124.800	-9.472	
124.900	-11.811	
125.000	-22.927	
125.100	-28.599	
125.200	-11.479	
125.300	-18.618	
125.400	-20.292	
125.500	-16.610	
125.600	-18.280	
125.700	-6.755	
125.800	-14.406	
125.900	-43.684	
126.000	-1.383	
126.100	-21.510	
126.200	-14.666	
126.300	-3.220	
126.400	-32.191	
126.500	-7.688	
126.600	-13.442	
126.700	-19.341	
126.800	-18.662	
126.900	-19.468	
127.000	-10.805	
127.100	-15.372	
127.200	-18.212	
127.300	-7.198	
127.400	-4.668	
127.500	-27.641	
127.600	-1.391	
127.700	-13.094	
127.800	-30.294	
127.900	-24.720	
128.000	-9.039	
128.100	-10.996	
128.200	-21.798	
128.300	-16.471	
128.400	-26.711	
128.500	-36.146	
128.600	-16.844	
128.700	-11.484	
128.800	-12.907	
128.900	-19.986	
129.000	-7.916	
129.100	-18.465	
129.200	-15.174	
129.300	-13.486	
129.400	-15.062	
129.500	-15.205	
129.600	-16.681	
129.700	-11.135	
129.800	-9.111	
129.900	-14.725	
130.000	-9.386	
130.100	0.344	
130.200	-16.715	
130.300	-11.802	
130.400	-5.269	
130.500	-42.084	
130.600	-11.579	
130.700	-22.802	
130.800	-11.678	
130.900	-26.470	
131.000	-5.674	
131.100	-11.227	
131.200	-14.368	
131.300	1.153	
131.400	-25.025	
131.500	-12.901	
131.600	-19.470	
131.700	-26.550	
131.800	-8.328	
131.900	-31.994	
132.000	-7.834	
132.100	-9.356	
132.200	-24.264	
132.300	-19.174	
132.400	-15.022	
132.500	-18.575	
132.600	-18.535	
132.700	-21.244	
132.800	-14.615	
132.900	-31.806	
133.000	-9.535	
133.100	-4.907	
133.200	-12.192	
133.300	-19.898	
133.400	-19.669	
133.500	-36.980	
133.600	-14.778	
133.700	-22.367	
133.800	-19.782	
133.900	-7.895	
134.000	-7.114	
134.100	-17.738	
134.200	-12.955	
134.300	-14.566	
134.400	-21.847	
134.500	-33.025	
134.600	-10.012	
134.700	-16.247	
134.800	-16.084	
134.900	-9.512	
135.000	-18.659	
135.100	-12.808	
135.200	-30.189	
135.300	-19.645	
135.400	-32.020	
135.500	-13.837	
135.600	-13.313	
135.700	-15.875	
135.800	-26.376	
135.900	-19.063	
136.000	-3.306	
136.100	-16.271	
136.200	-15.762	
136.300	-25.242	
136.400	-13.840	
136.500	-32.401	
136.600	-18.606	
136.700	-21.052	
136.800	-4.960	
136.900	-19.869	
137.000	-8.429	
137.100	-28.066	
137.200	-21.285	
137.300	-16.236	
137.400	-18.760	
137.500	-26.942	
137.600	-11.051	
137.700	-16.267	
137.800	-22.898	
137.900	-20.299	
138.000	0.071	
138.100	-19.016	
138.200	-22.195	
138.300	-17.585	
138.400	-14.380	
138.500	-19.200	
138.600	-14.856	
138.700	-13.559	
138.800	-25.748	
138.900	-0.306	
139.000	0.417	
139.100	-15.118	
139.200	-27.155	
139.300	-18.064	
139.400	-21.670	
139.500	-10.002	
139.600	-6.602	
139.700	-21.959	
139.800	-25.141	
139.900	-10.828	
140.000	-22.199	
140.100	-17.320	
140.200	-4.490	
140.300	-12.911	
140.400	-19.997	
140.500	-0.529	
140.600	-15.591	
140.700	-19.566	
140.800	-10.058	
140.900	-0.552	
141.000	-8.086	
141.100	3.662	
141.200	-18.475	
141.300	-11.380	
141.400	-18.220	
141.500	-16.926	
141.600	-23.091	
141.700	-17.184	
141.800	-15.568	
141.900	-28.963	
142.000	-16.720	
142.100	-31.724	
142.200	-13.524	
142.300	-19.243	
142.400	-0.029	
142.500	-18.288	
142.600	-9.041	
142.700	-11.566	
142.800	-20.266	
142.900	-33.065	
143.000	-7.996	
143.100	-10.181	
143.200	-28.233	
143.300	-12.475	
143.400	-16.063	
143.500	-18.788	
143.600	-23.665	
143.700	-8.483	
143.800	-16.479	
143.900	-33.544	
144.000	-5.599	
144.100	-24.727	
144.200	-11.180	
144.300	-18.029	
144.400	-14.764	
144.500	-8.076	
144.600	-16.094	
144.700	-13.364	
144.800	-8.928	
144.900	-25.961	
145.000	-26.086	
145.100	-9.535	
145.200	-5.236	
145.300	-21.626	
145.400	-25.021	
145.500	-4.326	
145.600	-24.517	
145.700	-12.744	
145.800	-24.152	
145.900	-8.457	
146.000	-9.230	
146.100	-19.097	
146.200	-17.660	
146.300	-15.162	
146.400	-15.104	
146.500	-6.963	
146.600	-17.353	
146.700	-9.709	
146.800	-17.424	
146.900	-15.600	
147.000	-11.830	
147.100	-16.774	
147.200	-17.632	
147.300	-1.069	
147.400	-19.472	
147.500	-12.360	
147.600	-9.791	
147.700	-28.083	
147.800	-13.252	
147.900	-24.947	
148.000	-10.969	
148.100	-10.209	
148.200	-3.893	
148.300	-28.798	
148.400	-9.641	
148.500	-10.358	
148.600	-26.015	
148.700	-6.356	
148.800	-22.774	
148.900	-4.473	
149.000	-29.349	
149.100	-22.991	
149.200	-11.069	
149.300	-3.605	
149.400	-17.465	
149.500	-1.063	
149.600	-8.265	
149.700	-5.001	
149.800	-21.542	
149.900	-24.045	
150.000	-15.258	
150.100	-18.579	
150.200	-16.265	
150.300	-13.022	
150.400	-11.354	
150.500	-14.964	
150.600	0.264	
150.700	-13.991	
150.800	-19.481	
150.900	-13.831	
151.000	-21.026	
151.100	-21.708	
151.200	-16.877	
151.300	-17.702	
151.400	-12.497	
151.500	-21.550	
151.600	-30.382	
151.700	3.448	
151.800	-20.788	
151.900	-5.863	
152.000	-18.952	
152.100	-9.020	
152.200	-26.526	
152.300	-2.347	
152.400	3.328	
152.500	-15.332	
152.600	-10.362	
152.700	-21.573	
152.800	-16.294	
152.900	-27.397	
153.000	-0.262	
153.100	-9.999	
153.200	-16.827	
153.300	-17.245	
153.400	-5.125	
153.500	-16.582	
153.600	-17.934	
153.700	-14.889	
153.800	-4.705	
153.900	-6.287	
154.000	-11.546	
154.100	-9.644	
154.200	-22.491	
154.300	-9.483	
154.400	-20.864	
154.500	-15.529	
154.600	-36.633	
154.700	0.827	
154.800	-1.049	
154.900	-15.101	
155.000	-13.953	
155.100	-12.051	
155.200	-10.340	
155.300	-26.182	
155.400	-3.106	
155.500	-8.493	
155.600	-3.079	
155.700	-11.440	
155.800	-17.437	
155.900	-19.061	
156.000	-15.533	
156.100	-4.872	
156.200	-13.178	
156.300	4.671	
156.400	-19.108	
156.500	0.588	
156.600	-23.284	
156.700	-13.390	
156.800	-14.949	
156.900	-7.543	
157.000	-13.827	
157.100	-23.223	
157.200	-10.133	
157.300	-3.783	
157.400	-9.603	
157.500	-26.859	
157.600	-12.154	
157.700	-2.413	
157.800	-15.663	
157.900	-12.144	
158.000	-23.487	
158.100	-18.647	
158.200	-10.930	
158.300	-5.195	
158.400	-4.929	
158.500	-25.514	
158.600	-17.972	
158.700	-14.465	
158.800	11.469	
158.900	-23.441	
159.000	-2.028	
159.100	-17.279	
159.200	-8.456	
159.300	-8.769	
159.400	-15.106	
159.500	-13.804	
159.600	-9.899	
159.700	-29.262	
159.800	-10.304	
159.900	0.365	
160.000	-14.015	
160.100	-10.595	
160.200	-32.738	
160.300	-17.009	
160.400	-9.132	
160.500	-7.098	
160.600	-20.420	
160.700	-17.629	
160.800	-32.238	
160.900	-8.772	
161.000	0.252	
161.100	-21.927	
161.200	-12.547	
161.300	-14.736	
161.400	-6.633	
161.500	-24.223	
161.600	-13.934	
161.700	-18.533	
161.800	-12.981	
161.900	-4.536	
162.000	-17.781	
162.100	-17.411	
162.200	-13.446	
162.300	-12.047	
162.400	-10.806	
162.500	-25.585	
162.600	14.431	
162.700	-18.751	
162.800	-16.180	
162.900	-20.469	
163.000	-15.021	
163.100	-25.711	
163.200	-3.511	
163.300	-30.802	
163.400	-1.012	
163.500	-15.309	
163.600	9.859	
163.700	-8.650	
163.800	-17.176	
163.900	-4.103	
164.000	-9.192	
164.100	-15.248	
164.200	-17.369	
164.300	-27.193	
164.400	-31.065	
164.500	-7.716	
164.600	-4.675	
164.700	-14.320	
164.800	-5.861	
164.900	-17.820	
165.000	-4.504	
165.100	-15.844	
165.200	-6.561	
165.300	-9.957	
165.400	-9.175	
165.500	-17.479	
165.600	-17.302	
165.700	-31.405	
165.800	-24.410	
165.900	-29.558	
166.000	-8.437	
166.100	-16.630	
166.200	1.441	
166.300	-8.883	
166.400	-18.316	
166.500	-11.446	
166.600	-10.211	
166.700	-13.195	
166.800	-9.452	
166.900	-9.526	
167.000	-6.039	
167.100	-5.225	
167.200	-13.076	
167.300	-19.228	
167.400	-11.208	
167.500	-5.100	
167.600	-10.087	
167.700	-19.326	
167.800	-17.477	
167.900	-11.761	
168.000	-4.973	
168.100	-12.674	
168.200	-7.341	
168.300	-14.551	
168.400	-21.974	
168.500	-13.569	
168.600	-5.899	
168.700	-0.963	
168.800	-9.060	
168.900	-18.383	
169.000	-7.693	
169.100	-11.274	
169.200	-0.354	
169.300	-15.286	
169.400	-8.517	
169.500	-6.475	
169.600	-1.526	
169.700	-12.468	
169.800	-23.073	
169.900	-9.148	
170.000	-0.975	
170.100	-18.034	
170.200	-11.923	
170.300	-24.370	
170.400	-9.962	
170.500	-25.533	
170.600	-7.100	
170.700	-3.029	
170.800	-6.971	
170.900	-10.749	
171.000	-26.587	
171.100	-16.162	
171.200	-21.126	
171.300	-12.438	
171.400	-4.249	
171.500	-18.236	
171.600	-5.523	
171.700	-8.875	
171.800	-5.659	
171.900	-6.176	
172.000	-6.098	
172.100	-10.819	
172.200	-19.581	
172.300	-5.082	
172.400	-12.996	
172.500	-11.837	
172.600	-17.142	
172.700	-26.246	
172.800	-8.395	
172.900	-3.090	
173.000	-23.034	
173.100	4.784	
173.200	-13.995	
173.300	-25.438	
173.400	-1.678	
173.500	11.283	
173.600	-17.594	
173.700	-11.687	
173.800	-12.044	
173.900	-14.520	
174.000	-10.718	
174.100	-0.016	
174.200	-4.892	
174.300	-13.501	
174.400	-18.715	
174.500	-9.397	
174.600	-23.218	
174.700	-8.690	
174.800	-10.975	
174.900	-19.807	
175.000	-14.763	
175.100	-30.966	
175.200	-30.320	
175.300	-12.483	
175.400	-13.644	
175.500	-20.121	
175.600	-10.486	
175.700	-13.574	
175.800	-7.056	
175.900	-11.427	
176.000	-10.757	
176.100	-4.601	
176.200	-3.812	
176.300	-6.495	
176.400	-11.215	
176.500	-14.291	
176.600	-8.208	
176.700	-9.805	
176.800	-18.318	
176.900	-16.361	
177.000	-3.359	
177.100	-29.410	
177.200	-17.790	
177.300	-12.494	
177.400	-8.840	
177.500	6.684	
177.600	-12.879	
177.700	-16.754	
177.800	-18.989	
177.900	-6.233	
178.000	-12.353	
178.100	-6.809	
178.200	-18.182	
178.300	-22.996	
178.400	-15.726	
178.500	-2.351	
178.600	-21.872	
178.700	-16.822	
178.800	-4.993	
178.900	-17.449	
179.000	-10.591	
179.100	-10.690	
179.200	-8.131	
179.300	-9.974	
179.400	-13.842	
179.500	-8.435	
179.600	-12.056	
179.700	-6.984	
179.800	2.547	
179.900	-23.306	
180.000	-4.746	
180.100	5.039	
180.200	-4.686	
180.300	-7.023	
180.400	19.082	
180.500	7.621	
180.600	-1.248	
180.700	4.452	
180.800	5.070	
180.900	6.394	
181.000	17.862	
181.100	19.110	
181.200	6.963	
181.300	18.598	
181.400	16.726	
181.500	19.480	
181.600	19.692	
181.700	16.157	
181.800	22.534	
181.900	12.969	
182.000	16.581	
182.100	18.743	
182.200	3.496	
182.300	27.099	
182.400	20.980	
182.500	22.257	
182.600	17.290	
182.700	14.114	
182.800	11.312	
182.900	6.066	
183.000	26.176	
183.100	20.709	
183.200	15.221	
183.300	12.618	
183.400	31.781	
183.500	2.615	
183.600	22.803	
183.700	21.657	
183.800	14.316	
183.900	19.995	
184.000	17.595	
184.100	18.481	
184.200	16.327	
184.300	29.156	
184.400	19.246	
184.500	3.152	
184.600	24.828	
184.700	10.854	
184.800	2.645	
184.900	19.754	
185.000	17.176	
185.100	25.759	
185.200	11.153	
185.300	13.897	
185.400	7.669	
185.500	20.589	
185.600	20.200	
185.700	12.671	
185.800	16.789	
185.900	5.406	
186.000	17.520	
186.100	23.968	
186.200	12.501	
186.300	13.122	
186.400	16.683	
186.500	26.489	
186.600	23.114	
186.700	13.260	
186.800	20.410	
186.900	10.463	
187.000	-1.446	
187.100	12.741	
187.200	5.519	
187.300	14.223	
187.400	20.281	
187.500	18.507	
187.600	17.365	
187.700	10.276	
187.800	24.251	
187.900	20.290	
188.000	13.927	
188.100	10.922	
188.200	14.338	
188.300	17.484	
188.400	18.075	
188.500	19.156	
188.600	22.162	
188.700	17.107	
188.800	18.655	
188.900	17.954	
189.000	17.982	
189.100	14.688	
189.200	6.072	
189.300	2.114	
189.400	13.165	
189.500	12.047	
189.600	22.345	
189.700	-1.832	
189.800	8.902	
189.900	12.570	
190.000	9.124	
190.100	13.909	
190.200	16.823	
190.300	32.714	
190.400	15.331	
190.500	15.611	
190.600	14.399	
190.700	31.618	
190.800	19.844	
190.900	30.061	
191.000	15.359	
191.100	15.475	
191.200	13.432	
191.300	20.788	
191.400	23.323	
191.500	24.022	
191.600	38.506	
191.700	20.803	
191.800	19.140	
191.900	24.625	
192.000	28.091	
192.100	13.809	
192.200	24.604	
192.300	27.415	
192.400	22.214	
192.500	10.575	
192.600	11.668	
192.700	15.534	
192.800	27.387	
192.900	27.612	
193.000	15.548	
193.100	17.406	
193.200	26.285	
193.300	-1.662	
193.400	33.698	
193.500	23.809	
193.600	21.080	
193.700	25.909	
193.800	8.246	
193.900	26.387	
194.000	26.346	
194.100	35.334	
194.200	34.068	
194.300	33.127	
194.400	40.536	
194.500	46.792	
194.600	11.693	
194.700	46.281	
194.800	37.659	
194.900	29.510	
195.000	28.471	
195.100	39.498	
195.200	31.335	
195.300	25.426	
195.400	42.752	
195.500	21.619	
195.600	39.547	
195.700	24.334	
195.800	38.951	
195.900	39.668	
196.000	44.420	
196.100	45.795	
196.200	33.803	
196.300	31.007	
196.400	25.610	
196.500	33.027	
196.600	34.959	
196.700	43.218	
196.800	35.680	
196.900	42.949	
197.000	34.862	
197.100	41.801	
197.200	47.115	
197.300	37.698	
197.400	45.740	
197.500	42.204	
197.600	39.163	
197.700	39.579	
197.800	37.904	
197.900	35.841	
198.000	34.447	
198.100	22.837	
198.200	34.518	
198.300	55.841	
198.400	34.884	
198.500	38.372	
198.600	39.781	
198.700	43.100	
198.800	41.092	
198.900	43.436	
199.000	45.748	
199.100	32.421	
199.200	20.878	
199.300	39.859	
199.400	38.989	
199.500	48.391	
199.600	34.183	
199.700	43.839	
199.800	48.755	
199.900	39.391	
200.000	39.131	
200.100	36.987	
200.200	50.128	
200.300	38.698	
200.400	41.463	
200.500	48.113	
200.600	32.840	
200.700	37.701	
200.800	42.045	
200.900	56.939	
201.000	44.284	
201.100	37.268	
201.200	45.491	
201.300	40.941	
201.400	37.275	
201.500	47.083	
201.600	34.428	
201.700	48.006	
201.800	51.530	
201.900	23.043	
202.000	56.135	
202.100	31.359	
202.200	61.537	
202.300	37.201	
202.400	38.634	
202.500	46.387	
202.600	43.872	
202.700	34.291	
202.800	32.977	
202.900	16.050	
203.000	48.937	
203.100	60.105	
203.200	50.048	
203.300	38.556	
203.400	46.245	
203.500	49.168	
203.600	40.572	
203.700	50.075	
203.800	39.317	
203.900	57.523	
204.000	45.734	
204.100	40.535	
204.200	53.670	
204.300	50.108	
204.400	38.674	
204.500	38.432	
204.600	35.027	
204.700	44.966	
204.800	35.068	
204.900	49.645	
205.000	40.941	
205.100	39.946	
205.200	59.986	
205.300	41.277	
205.400	52.339	
205.500	44.813	
205.600	43.239	
205.700	52.699	
205.800	42.543	
205.900	48.660	
206.000	27.449	
206.100	36.045	
206.200	36.835	
206.300	48.414	
206.400	40.570	
206.500	41.658	
206.600	50.698	
206.700	54.334	
206.800	45.977	
206.900	42.712	
207.000	30.429	
207.100	56.079	
207.200	28.585	
207.300	48.006	
207.400	41.970	
207.500	48.188	
207.600	42.755	
207.700	42.695	
207.800	52.209	
207.900	36.636	
208.000	41.318	
208.100	43.093	
208.200	42.927	
208.300	27.301	
208.400	35.645	
208.500	39.901	
208.600	54.822	
208.700	51.009	
208.800	42.648	
208.900	52.830	
209.000	39.751	
209.100	35.564	
209.200	44.238	
209.300	52.391	
209.400	43.802	
209.500	46.159	
209.600	50.872	
209.700	54.626	
209.800	39.367	
209.900	49.904	
210.000	44.777	
210.100	32.705	
210.200	48.406	
210.300	39.527	
210.400	38.313	
210.500	42.651	
210.600	30.620	
210.700	51.046	
210.800	46.971	
210.900	51.681	
211.000	44.986	
211.100	32.032	
211.200	56.020	
211.300	55.303	
211.400	35.329	
211.500	46.562	
211.600	30.651	
211.700	41.900	
211.800	37.319	
211.900	36.713	
212.000	51.618	
212.100	39.412	
212.200	57.732	
212.300	46.898	
212.400	52.839	
212.500	45.662	
212.600	45.779	
212.700	25.699	
212.800	37.604	
212.900	41.207	
213.000	40.626	
213.100	40.254	
213.200	37.402	
213.300	54.459	
213.400	51.978	
213.500	44.461	
213.600	34.090	
213.700	52.310	
213.800	43.187	
213.900	46.461	
214.000	32.082	
214.100	36.425	
214.200	29.477	
214.300	49.436	
214.400	40.862	
214.500	52.785	
214.600	47.569	
214.700	52.070	
214.800	46.380	
214.900	30.504	
215.000	30.608	
215.100	45.174	
215.200	58.698	
215.300	40.714	
215.400	44.196	
215.500	41.678	
215.600	28.839	
215.700	50.927	
215.800	37.194	
215.900	32.771	
216.000	39.367	
216.100	42.218	
216.200	27.743	
216.300	56.170	
216.400	46.540	
216.500	31.671	
216.600	41.173	
216.700	47.513	
216.800	34.241	
216.900	52.350	
217.000	47.431	
217.100	42.921	
217.200	17.255	
217.300	63.336	
217.400	46.784	
217.500	31.859	
217.600	48.552	
217.700	48.955	
217.800	54.129	
217.900	36.733	
218.000	50.288	
218.100	47.698	
218.200	41.648	
218.300	47.453	
218.400	46.413	
218.500	57.159	
218.600	35.675	
218.700	43.012	
218.800	49.740	
218.900	40.237	
219.000	42.432	
219.100	44.509	
219.200	27.533	
219.300	53.983	
219.400	46.331	
219.500	45.827	
219.600	48.799	
219.700	36.367	
219.800	61.946	
219.900	50.974	
220.000	31.541	
220.100	50.926	
220.200	30.533	
220.300	47.954	
220.400	47.711	
220.500	28.265	
220.600	30.700	
220.700	47.342	
220.800	49.407	
220.900	47.080	
221.000	33.996	
221.100	40.870	
221.200	52.543	
221.300	24.720	
221.400	42.885	
221.500	26.120	
221.600	44.972	
221.700	32.899	
221.800	47.291	
221.900	45.864	
222.000	38.202	
222.100	44.979	
222.200	51.115	
222.300	45.576	
222.400	42.198	
222.500	44.856	
222.600	29.108	
222.700	37.626	
222.800	42.999	
222.900	42.694	
223.000	59.001	
223.100	51.558	
223.200	46.006	
223.300	41.974	
223.400	42.975	
223.500	53.431	
223.600	37.086	
223.700	37.559	
223.800	37.135	
223.900	35.143	
224.000	37.854	
224.100	44.665	
224.200	42.589	
224.300	30.978	
224.400	54.121	
224.500	43.322	
224.600	38.977	
224.700	39.956	
224.800	44.404	
224.900	38.676	
225.000	40.630	
225.100	50.643	
225.200	30.237	
225.300	36.294	
225.400	49.626	
225.500	44.357	
225.600	39.416	
225.700	39.741	
225.800	42.577	
225.900	44.713	
226.000	30.910	
226.100	45.779	
226.200	52.406	
226.300	38.652	
226.400	54.235	
226.500	23.378	
226.600	42.865	
226.700	28.661	
226.800	39.520	
226.900	34.457	
227.000	58.112	
227.100	51.747	
227.200	32.029	
227.300	36.948	
227.400	20.079	
227.500	35.140	
227.600	49.041	
227.700	52.540	
227.800	46.136	
227.900	27.702	
228.000	51.476	
228.100	48.476	
228.200	32.201	
228.300	47.516	
228.400	43.892	
228.500	30.746	
228.600	42.744	
228.700	49.590	
228.800	42.980	
228.900	42.971	
229.000	40.553	
229.100	28.578	
229.200	43.741	
229.300	33.489	
229.400	41.096	
229.500	33.043	
229.600	59.596	
229.700	39.226	
229.800	49.269	
229.900	44.098	
230.000	32.182	
230.100	47.937	
230.200	32.634	
230.300	36.830	
230.400	37.498	
230.500	24.972	
230.600	40.066	
230.700	44.718	
230.800	48.716	
230.900	20.210	
231.000	43.394	
231.100	41.163	
231.200	42.218	
231.300	44.208	
231.400	43.227	
231.500	34.556	
231.600	37.764	
231.700	43.054	
231.800	47.424	
231.900	54.052	
232.000	39.845	
232.100	41.297	
232.200	35.509	
232.300	40.940	
232.400	45.176	
232.500	37.699	
232.600	44.677	
232.700	45.139	
232.800	37.647	
232.900	44.664	
233.000	46.402	
233.100	47.606	
233.200	31.724	
233.300	46.219	
233.400	47.158	
233.500	40.080	
233.600	34.080	
233.700	48.259	
233.800	30.409	
233.900	49.421	
234.000	28.260	
234.100	34.362	
234.200	21.660	
234.300	57.443	
234.400	44.330	
234.500	33.973	
234.600	46.121	
234.700	39.605	
234.800	37.490	
234.900	30.768	
235.000	47.472	
235.100	46.056	
235.200	29.524	
235.300	51.057	
235.400	32.267	
235.500	39.218	
235.600	27.362	
235.700	39.764	
235.800	54.701	
235.900	37.630	
236.000	42.781	
236.100	39.944	
236.200	46.272	
236.300	27.284	
236.400	42.645	
236.500	43.793	
236.600	43.593	
236.700	47.170	
236.800	46.103	
236.900	39.949	
237.000	29.383	
237.100	32.589	
237.200	28.067	
237.300	29.991	
237.400	47.896	
237.500	30.261	
237.600	45.214	
237.700	37.106	
237.800	46.450	
237.900	35.047	
238.000	44.289	
238.100	36.072	
238.200	27.746	
238.300	38.624	
238.400	47.112	
238.500	40.105	
238.600	48.386	
238.700	31.019	
238.800	26.515	
238.900	48.248	
239.000	29.877	
239.100	41.758	
239.200	38.862	
239.300	28.090	
239.400	42.064	
239.500	26.633	
239.600	36.280	
239.700	46.207	
239.800	43.871	
239.900	34.625	
240.000	35.663	
240.100	26.035	
240.200	35.108	
240.300	30.715	
240.400	16.753	
240.500	23.585	
240.600	19.110	
240.700	12.209	
240.800	21.189	
240.900	10.491	
241.000	30.755	
241.100	22.910	
241.200	20.471	
241.300	6.463	
241.400	11.718	
241.500	14.808	
241.600	-9.681	
241.700	3.360	
241.800	-0.613	
241.900	3.194	
242.000	18.756	
242.100	8.072	
242.200	14.773	
242.300	10.805	
242.400	-15.800	
242.500	21.984	
242.600	5.314	
242.700	-16.530	
242.800	1.561	
242.900	9.767	
243.000	-0.845	
243.100	-4.943	
243.200	-2.044	
243.300	-12.865	
243.400	5.177	
243.500	-4.917	
243.600	5.578	
243.700	-7.383	
243.800	-6.800	
243.900	-8.639	
244.000	-9.608	
244.100	4.473	
244.200	-9.319	
244.300	-6.731	
244.400	5.749	
244.500	-17.721	
244.600	-2.930	
244.700	-2.160	
244.800	0.697	
244.900	-11.431	
245.000	3.486	
245.100	3.341	
245.200	-3.685	
245.300	-9.862	
245.400	-12.267	
245.500	-9.322	
245.600	-7.274	
245.700	-7.243	
245.800	-1.299	
245.900	-21.036	
246.000	-1.171	
246.100	-15.695	
246.200	5.832	
246.300	-4.886	
246.400	-10.971	
246.500	-12.686	
246.600	-9.383	
246.700	-8.451	
246.800	-2.134	
246.900	-5.534	
247.000	-27.147	
247.100	-12.674	
247.200	7.465	
247.300	-30.251	
247.400	-11.135	
247.500	-4.282	
247.600	0.676	
247.700	-9.723	
247.800	-7.835	
247.900	-14.079	
248.000	-14.008	
248.100	3.239	
248.200	-10.756	
248.300	-13.222	
248.400	-14.028	
248.500	-5.808	
248.600	-16.810	
248.700	9.519	
248.800	-3.402	
248.900	-10.495	
249.000	-6.292	
249.100	-9.379	
249.200	-0.582	
249.300	-11.217	
249.400	-7.876	
249.500	-14.969	
249.600	-11.915	
249.700	16.467	
249.800	4.827	
249.900	-4.295	
250.000	-6.447	
250.100	-7.514	
250.200	-6.497	
250.300	1.668	
250.400	-5.579	
250.500	1.162	
250.600	-27.780	
250.700	-12.069	
250.800	-8.397	
250.900	-11.181	
251.000	-17.405	
251.100	1.959	
251.200	-8.062	
251.300	-4.085	
251.400	-15.102	
251.500	-7.204	
251.600	-7.300	
251.700	-12.889	
251.800	13.106	
251.900	-13.179	
252.000	-21.558	
252.100	-2.391	
252.200	5.042	
252.300	-15.732	
252.400	-5.162	
252.500	-10.910	
252.600	-1.340	
252.700	-8.884	
252.800	-13.438	
252.900	-26.884	
253.000	-13.438	
253.100	-0.805	
253.200	-17.406	
253.300	3.091	
253.400	-10.766	
253.500	12.050	
253.600	-13.627	
253.700	-2.090	
253.800	-3.304	
253.900	-5.969	
254.000	2.208	
254.100	-8.556	
254.200	-12.918	
254.300	-3.148	
254.400	-14.948	
254.500	-25.578	
254.600	-15.244	
254.700	-12.025	
254.800	-5.028	
254.900	-7.288	
255.000	-8.474	
255.100	-2.623	
255.200	-3.719	
255.300	-10.596	
255.400	-7.166	
255.500	-6.890	
255.600	0.324	
255.700	-6.540	
255.800	-9.432	
255.900	2.113	
256.000	-10.183	
256.100	-3.531	
256.200	-17.169	
256.300	0.371	
256.400	-7.472	
256.500	-6.584	
256.600	-17.703	
256.700	-13.145	
256.800	-9.510	
256.900	4.896	
257.000	-11.602	
257.100	-13.476	
257.200	-16.090	
257.300	-7.149	
257.400	-7.819	
257.500	-13.557	
257.600	-11.519	
257.700	-9.808	
257.800	-15.638	
257.900	-5.657	
258.000	-3.882	
258.100	-18.523	
258.200	-6.188	
258.300	-8.655	
258.400	-16.124	
258.500	-20.307	
258.600	-5.439	
258.700	-15.272	
258.800	-13.205	
258.900	-14.980	
259.000	-26.814	
259.100	-19.091	
259.200	-13.605	
259.300	-18.475	
259.400	-17.796	
259.500	-2.204	
259.600	-10.301	
259.700	-13.138	
259.800	4.593	
259.900	-11.333	
260.000	-18.165	
260.100	-11.366	
260.200	-2.125	
260.300	-18.598	
260.400	-15.950	
260.500	-8.390	
260.600	-8.186	
260.700	-2.992	
260.800	-15.365	
260.900	-9.361	
261.000	-7.834	
261.100	-8.507	
261.200	-12.051	
261.300	-17.692	
261.400	-21.333	
261.500	-12.018	
261.600	-12.588	
261.700	-14.440	
261.800	-18.661	
261.900	-16.529	
262.000	-11.841	
262.100	-21.539	
262.200	-21.640	
262.300	-11.847	
262.400	-15.148	
262.500	-2.762	
262.600	-19.402	
262.700	-16.012	
262.800	-13.369	
262.900	-4.214	
263.000	-18.346	
263.100	-18.012	
263.200	-10.662	
263.300	-18.175	
263.400	-18.061	
263.500	-1.920	
263.600	-14.642	
263.700	-18.686	
263.800	-3.337	
263.900	-11.198	
264.000	-16.250	
264.100	-13.883	
264.200	-36.455	
264.300	-2.796	
264.400	-5.598	
264.500	-9.066	
264.600	-17.408	
264.700	-21.654	
264.800	-35.166	
264.900	-15.763	
265.000	-9.428	
265.100	0.706	
265.200	-11.554	
265.300	-28.102	
265.400	-10.307	
265.500	-4.569	
265.600	-12.083	
265.700	-20.846	
265.800	-18.671	
265.900	-14.038	
266.000	-8.225	
266.100	-31.973	
266.200	-9.239	
266.300	-10.684	
266.400	-22.843	
266.500	-12.317	
266.600	-4.085	
266.700	-10.378	
266.800	-11.087	
266.900	-15.894	
267.000	-10.962	
267.100	-4.406	
267.200	-12.694	
267.300	-16.252	
267.400	-11.108	
267.500	-30.349	
267.600	-12.194	
267.700	-24.405	
267.800	-0.017	
267.900	-20.956	
268.000	-4.012	
268.100	-23.365	
268.200	-16.905	
268.300	-14.219	
268.400	-30.416	
268.500	-8.983	
268.600	-10.443	
268.700	-15.045	
268.800	-17.791	
268.900	-11.049	
269.000	-19.535	
269.100	-2.271	
269.200	-12.195	
269.300	-4.867	
269.400	-18.283	
269.500	-7.593	
269.600	-24.938	
269.700	-14.345	
269.800	-18.607	
269.900	-30.940	
270.000	-7.014	
270.100	-26.533	
270.200	-2.806	
270.300	-21.698	
270.400	-17.375	
270.500	-18.916	
270.600	-12.834	
270.700	-18.217	
270.800	-9.021	
270.900	-25.480	
271.000	-12.681	
271.100	-31.440	
271.200	-15.341	
271.300	-18.523	
271.400	-10.308	
271.500	-12.604	
271.600	-6.709	
271.700	-15.626	
271.800	-25.527	
271.900	-18.084	
272.000	-29.459	
272.100	-29.145	
272.200	-19.654	
272.300	-10.764	
272.400	-25.132	
272.500	-24.038	
272.600	-0.919	
272.700	-23.367	
272.800	-9.920	
272.900	-24.861	
273.000	-26.159	
273.100	-25.713	
273.200	-27.809	
273.300	-18.029	
273.400	-11.625	
273.500	-21.237	
273.600	-13.033	
273.700	-18.215	
273.800	-22.463	
273.900	-16.579	
274.000	-22.220	
274.100	-23.535	
274.200	-16.948	
274.300	-16.998	
274.400	-37.074	
274.500	-14.430	
274.600	-17.161	
274.700	-28.114	
274.800	-19.208	
274.900	-17.718	
275.000	-12.979	
275.100	-9.032	
275.200	-28.382	
275.300	-24.153	
275.400	-11.535	
275.500	-36.528	
275.600	-16.838	
275.700	-21.317	
275.800	-24.466	
275.900	-18.353	
276.000	-14.872	
276.100	-12.571	
276.200	-12.845	
276.300	-6.145	
276.400	-30.852	
276.500	-17.820	
276.600	-26.402	
276.700	-11.060	
276.800	-17.797	
276.900	-14.164	
277.000	-19.250	
277.100	-18.195	
277.200	-20.981	
277.300	-24.457	
277.400	-25.171	
277.500	-36.372	
277.600	-16.783	
277.700	-21.578	
277.800	-17.783	
277.900	-24.536	
278.000	-35.365	
278.100	-12.133	
278.200	-24.718	
278.300	-8.478	
278.400	-17.447	
278.500	-26.416	
278.600	-13.365	
278.700	-20.959	
278.800	-6.910	
278.900	-25.651	
279.000	-15.277	
279.100	-17.235	
279.200	-10.949	
279.300	-21.329	
279.400	-21.483	
279.500	-16.853	
279.600	-20.008	
279.700	-20.333	
279.800	-25.662	
279.900	-17.184	
280.000	-33.034	
280.100	-24.337	
280.200	-12.868	
280.300	-6.122	
280.400	-17.049	
280.500	-26.764	
280.600	-12.381	
280.700	-10.441	
280.800	-13.966	
280.900	-24.926	
281.000	-23.096	
281.100	-26.577	
281.200	-15.972	
281.300	-8.023	
281.400	-10.064	
281.500	-31.359	
281.600	-17.722	
281.700	-16.224	
281.800	-24.404	
281.900	-5.621	
282.000	-13.606	
282.100	-18.359	
282.200	-27.009	
282.300	-4.687	
282.400	-16.829	
282.500	-31.839	
282.600	-9.744	
282.700	-32.151	
282.800	-7.260	
282.900	-21.153	
283.000	-25.202	
283.100	-18.720	
283.200	-11.778	
283.300	-19.970	
283.400	-24.064	
283.500	-31.362	
283.600	-12.708	
283.700	-28.022	
283.800	-20.065	
283.900	-18.843	
284.000	-10.299	
284.100	-22.100	
284.200	-23.161	
284.300	-14.865	
284.400	-16.495	
284.500	-7.300	
284.600	-14.027	
284.700	-20.603	
284.800	-34.436	
284.900	-26.628	
285.000	-24.136	
285.100	-12.487	
285.200	-11.902	
285.300	-13.297	
285.400	-30.152	
285.500	-14.885	
285.600	-16.415	
285.700	-2.407	
285.800	-36.727	
285.900	-15.207	
286.000	-6.369	
286.100	-36.232	
286.200	-24.020	
286.300	-18.477	
286.400	-14.063	
286.500	-5.150	
286.600	-25.257	
286.700	-25.870	
286.800	-20.897	
286.900	-21.749	
287.000	-33.013	
287.100	-16.076	
287.200	-26.251	
287.300	-16.921	
287.400	-19.386	
287.500	-13.421	
287.600	-16.114	
287.700	-34.785	
287.800	-23.095	
287.900	0.149	
288.000	-29.483	
288.100	-29.142	
288.200	-26.535	
288.300	-32.627	
288.400	-10.913	
288.500	-30.006	
288.600	-4.584	
288.700	-19.713	
288.800	-25.992	
288.900	-9.131	
289.000	-18.098	
289.100	-3.895	
289.200	-23.747	
289.300	-2.019	
289.400	-14.814	
289.500	-14.511	
289.600	-23.827	
289.700	-31.693	
289.800	-6.272	
289.900	-15.810	
290.000	-22.199	
290.100	-35.325	
290.200	-16.543	
290.300	-3.146	
290.400	-44.446	
290.500	-14.355	
290.600	-11.536	
290.700	-28.513	
290.800	-20.493	
290.900	-19.496	
291.000	-8.618	
291.100	-5.910	
291.200	-3.259	
291.300	-27.051	
291.400	-36.049	
291.500	-3.588	
291.600	-34.846	
291.700	-29.663	
291.800	-20.994	
291.900	-4.186	
292.000	-11.908	
292.100	-19.480	
292.200	-20.468	
292.300	-31.316	
292.400	-11.696	
292.500	-4.718	
292.600	-0.541	
292.700	-14.225	
292.800	-13.468	
292.900	-15.843	
293.000	-26.734	
293.100	-18.409	
293.200	-19.347	
293.300	-16.780	
293.400	-15.398	
293.500	-7.805	
293.600	-26.050	
293.700	-15.547	
293.800	-16.312	
293.900	-14.638	
294.000	-25.730	
294.100	-24.050	
294.200	-7.874	
294.300	-15.462	
294.400	-20.243	
294.500	-8.308	
294.600	-7.520	
294.700	-13.633	
294.800	-9.395	
294.900	-19.738	
295.000	-22.308	
295.100	-11.411	
295.200	-15.245	
295.300	-19.586	
295.400	-15.663	
295.500	-14.870	
295.600	-16.040	
295.700	-11.662	
295.800	-29.513	
295.900	-10.267	
296.000	-21.330	
296.100	-6.391	
296.200	-9.372	
296.300	-12.895	
296.400	-11.604	
296.500	-25.449	
296.600	-18.740	
296.700	-0.793	
296.800	-14.297	
296.900	-26.878	
297.000	-30.656	
297.100	-10.467	
297.200	-13.165	
297.300	-2.446	
297.400	-6.524	
297.500	-4.899	
297.600	-9.769	
297.700	-24.374	
297.800	-22.426	
297.900	-19.061	
298.000	-23.424	
298.100	-5.430	
298.200	-26.230	
298.300	2.697	
298.400	-13.194	
298.500	-12.902	
298.600	-28.274	
298.700	-11.635	
298.800	-21.952	
298.900	-25.225	
299.000	-11.258	
299.100	-13.813	
299.200	-24.373	
299.300	-19.932	
299.400	-19.517	
299.500	-13.263	
299.600	-17.547	
299.700	-18.023	
299.800	-21.964	
299.900	-14.194	
300.000	-18.177	
300.100	-10.262	
300.200	-3.688	
300.300	-8.724	
300.400	-13.452	
300.500	-17.815	
300.600	-23.439	
300.700	2.076	
300.800	-15.889	
300.900	-41.075	
301.000	-6.610	
301.100	-17.501	
301.200	-22.873	
301.300	-14.399	
301.400	-13.218	
301.500	-15.170	
301.600	-38.878	
301.700	-13.397	
301.800	-22.233	
301.900	-17.719	
302.000	-15.482	
302.100	-17.659	
302.200	-5.636	
302.300	-11.566	
302.400	-33.923	
302.500	-13.727	
302.600	-16.441	
302.700	-5.972	
302.800	-26.795	
302.900	-9.965	
303.000	-24.982	
303.100	-20.082	
303.200	-18.229	
303.300	-15.940	
303.400	-20.799	
303.500	-21.915	
303.600	-13.950	
303.700	-11.207	
303.800	-12.588	
303.900	-26.790	
304.000	-16.967	
304.100	-20.867	
304.200	-21.317	
304.300	2.738	
304.400	-10.406	
304.500	-4.577	
304.600	-8.240	
304.700	-7.869	
304.800	-10.013	
304.900	-22.920	
305.000	-2.902	
305.100	-14.666	
305.200	-17.542	
305.300	-30.655	
305.400	1.110	
305.500	-13.886	
305.600	-16.738	
305.700	-7.678	
305.800	-7.779	
305.900	-8.668	
306.000	-15.476	
306.100	-15.994	
306.200	-21.285	
306.300	-23.401	
306.400	-1.843	
306.500	-23.347	
306.600	-20.284	
306.700	-22.335	
306.800	-27.081	
306.900	-5.658	
307.000	-23.363	
307.100	-16.681	
307.200	1.772	
307.300	-28.108	
307.400	-8.426	
307.500	-11.475	
307.600	-7.959	
307.700	-29.508	
307.800	-7.860	
307.900	-12.882	
308.000	-24.053	
308.100	-21.740	
308.200	-2.622	
308.300	-17.230	
308.400	-20.011	
308.500	-15.600	
308.600	-12.934	
308.700	-12.227	
308.800	-14.663	
308.900	-14.640	
309.000	-17.730	
309.100	-21.334	
309.200	-16.380	
309.300	-2.129	
309.400	-19.020	
309.500	-14.420	
309.600	-28.074	
309.700	-7.890	
309.800	-15.389	
309.900	-4.233	
310.000	-32.911	
310.100	-8.728	
310.200	-18.628	
310.300	-0.996	
310.400	-21.681	
310.500	-21.845	
310.600	-14.743	
310.700	-21.551	
310.800	-6.542	
310.900	-11.768	
311.000	-31.646	
311.100	-13.754	
311.200	-23.189	
311.300	-7.651	
311.400	-15.511	
311.500	-10.835	
311.600	-12.220	
311.700	-18.772	
311.800	-11.285	
311.900	-17.872	
312.000	-14.128	
312.100	-12.149	
312.200	-3.447	
312.300	-21.922	
312.400	-11.843	
312.500	-4.629	
312.600	-1.406	
312.700	-4.005	
312.800	-19.472	
312.900	-12.275	
313.000	-9.022	
313.100	-18.281	
313.200	-5.410	
313.300	-18.532	
313.400	-13.093	
313.500	-4.924	
313.600	-25.349	
313.700	-15.868	
313.800	-8.742	
313.900	-23.679	
314.000	-14.512	
314.100	-9.544	
314.200	-16.929	
314.300	-19.308	
314.400	-6.942	
314.500	-17.928	
314.600	-21.960	
314.700	3.031	
314.800	-6.642	
314.900	-14.702	
315.000	-18.222	
315.100	-21.611	
315.200	-17.948	
315.300	-11.725	
315.400	-15.722	
315.500	-31.514	
315.600	-19.879	
315.700	-16.480	
315.800	-4.578	
315.900	-13.788	
316.000	-3.982	
316.100	-8.747	
316.200	-1.816	
316.300	-14.369	
316.400	-18.890	
316.500	-19.247	
316.600	-20.186	
316.700	-21.925	
316.800	-1.831	
316.900	-10.744	
317.000	-15.555	
317.100	-29.241	
317.200	-0.865	
317.300	-14.111	
317.400	-12.965	
317.500	-15.465	
317.600	-11.141	
317.700	-10.784	
317.800	-16.552	
317.900	-11.220	
318.000	-8.995	
318.100	-25.426	
318.200	-2.818	
318.300	-16.574	
318.400	-3.412	
318.500	-25.290	
318.600	-21.779	
318.700	-10.821	
318.800	-7.660	
318.900	-16.516	
319.000	1.169	
319.100	-17.202	
319.200	-6.787	
319.300	-14.711	
319.400	-19.544	
319.500	-3.756	
319.600	-18.942	
319.700	-19.669	
319.800	-7.812	
319.900	-11.362	
320.000	-20.407	
320.100	-15.955	
320.200	-3.386	
320.300	-10.335	
320.400	-18.368	
320.500	-8.793	
320.600	-10.298	
320.700	-19.667	
320.800	-17.178	
320.900	-27.182	
321.000	-10.700	
321.100	-9.539	
321.200	-1.435	
321.300	-21.764	
321.400	-11.461	
321.500	-11.603	
321.600	-23.082	
321.700	-0.028	
321.800	-8.377	
321.900	-24.789	
322.000	-12.988	
322.100	-21.278	
322.200	-32.198	
322.300	-15.148	
322.400	1.364	
322.500	-12.668	
322.600	-14.452	
322.700	-7.588	
322.800	-14.689	
322.900	-19.979	
323.000	-17.741	
323.100	-2.902	
323.200	-21.041	
323.300	-10.548	
323.400	-10.476	
323.500	-10.225	
323.600	-13.582	
323.700	-1.678	
323.800	-9.318	
323.900	-11.625	
324.000	-22.280	
324.100	-12.364	
324.200	-11.528	
324.300	-7.186	
324.400	-24.876	
324.500	-16.446	
324.600	-3.475	
324.700	-12.973	
324.800	-18.352	
324.900	-8.252	
325.000	-8.275	
325.100	-14.165	
325.200	-11.297	
325.300	-15.730	
325.400	-4.543	
325.500	-13.421	
325.600	-7.711	
325.700	-14.964	
325.800	-3.261	
325.900	-14.510	
326.000	-5.371	
326.100	-10.258	
326.200	-10.990	
326.300	-10.244	
326.400	-4.731	
326.500	-23.767	
326.600	-28.541	
326.700	2.291	
326.800	-14.842	
326.900	5.857	
327.000	-9.511	
327.100	-20.493	
327.200	-4.734	
327.300	-14.043	
327.400	-11.449	
327.500	-16.990	
327.600	-12.219	
327.700	-7.874	
327.800	-27.450	
327.900	-14.479	
328.000	-13.230	
328.100	-4.422	
328.200	-2.627	
328.300	-18.057	
328.400	-13.508	
328.500	-14.767	
328.600	-20.478	
328.700	-13.162	
328.800	-10.663	
328.900	-22.936	
329.000	-5.361	
329.100	-2.019	
329.200	-11.317	
329.300	-15.292	
329.400	6.752	
329.500	-9.773	
329.600	-1.954	
329.700	-1.469	
329.800	-21.477	
329.900	1.908	
330.000	-11.109	
330.100	-11.920	
330.200	5.957	
330.300	-10.561	
330.400	10.690	
330.500	23.398	
330.600	-4.539	
330.700	6.728	
330.800	11.708	
330.900	13.960	
331.000	16.578	
331.100	5.147	
331.200	28.588	
331.300	-6.300	
331.400	8.495	
331.500	13.072	
331.600	26.911	
331.700	17.888	
331.800	24.375	
331.900	11.004	
332.000	25.037	
332.100	17.157	
332.200	14.380	
332.300	-2.249	
332.400	27.242	
332.500	14.135	
332.600	25.232	
332.700	4.359	
332.800	16.942	
332.900	23.860	
333.000	20.665	
333.100	20.391	
333.200	13.198	
333.300	13.992	
333.400	17.392	
333.500	21.335	
333.600	15.081	
333.700	12.926	
333.800	12.571	
333.900	21.589	
334.000	10.602	
334.100	21.267	
334.200	27.904	
334.300	10.375	
334.400	5.570	
334.500	18.873	
334.600	26.802	
334.700	21.773	
334.800	16.419	
334.900	6.711	
335.000	10.916	
335.100	19.414	
335.200	14.496	
335.300	6.202	
335.400	15.480	
335.500	19.001	
335.600	25.817	
335.700	12.118	
335.800	13.360	
335.900	7.122	
336.000	33.841	
336.100	24.314	
336.200	10.527	
336.300	16.485	
336.400	27.290	
336.500	14.991	
336.600	4.955	
336.700	13.119	
336.800	25.084	
336.900	-9.883	
337.000	25.149	
337.100	4.864	
337.200	25.001	
337.300	14.915	
337.400	15.810	
337.500	19.125	
337.600	25.657	
337.700	5.404	
337.800	9.798	
337.900	11.917	
338.000	13.719	
338.100	15.325	
338.200	20.386	
338.300	10.275	
338.400	12.809	
338.500	21.952	
338.600	8.670	
338.700	10.998	
338.800	22.722	
338.900	5.789	
339.000	9.664	
339.100	18.892	
339.200	6.487	
339.300	16.858	
339.400	14.513	
339.500	21.737	
339.600	15.729	
339.700	5.932	
339.800	11.240	
339.900	21.031	
340.000	20.967	
340.100	33.063	
340.200	14.506	
340.300	20.069	
340.400	14.347	
340.500	19.700	
340.600	21.685	
340.700	13.088	
340.800	15.607	
340.900	14.050	
341.000	16.971	
341.100	22.950	
341.200	16.641	
341.300	7.698	
341.400	18.736	
341.500	39.275	
341.600	37.308	
341.700	35.725	
341.800	18.548	
341.900	35.734	
342.000	5.279	
342.100	25.432	
342.200	16.132	
342.300	32.341	
342.400	25.380	
342.500	19.020	
342.600	23.940	
342.700	26.337	
342.800	28.932	
342.900	16.082	
343.000	8.919	
343.100	19.572	
343.200	32.069	
343.300	28.073	
343.400	20.915	
343.500	48.786	
343.600	26.644	
343.700	27.621	
343.800	31.639	
343.900	26.797	
344.000	33.533	
344.100	30.227	
344.200	40.952	
344.300	13.385	
344.400	38.605	
344.500	28.241	
344.600	33.082	
344.700	21.559	
344.800	27.639	
344.900	28.980	
345.000	47.591	
345.100	36.994	
345.200	37.581	
345.300	24.704	
345.400	30.768	
345.500	33.650	
345.600	41.038	
345.700	41.115	
345.800	37.722	
345.900	32.817	
346.000	25.561	
346.100	40.898	
346.200	46.815	
346.300	17.015	
346.400	27.426	
346.500	42.811	
346.600	40.968	
346.700	37.820	
346.800	45.229	
346.900	33.982	
347.000	42.623	
347.100	35.404	
347.200	39.533	
347.300	35.472	
347.400	36.796	
347.500	34.407	
347.600	47.232	
347.700	43.015	
347.800	24.116	
347.900	47.565	
348.000	28.961	
348.100	41.596	
348.200	27.871	
348.300	43.001	
348.400	44.715	
348.500	45.863	
348.600	20.772	
348.700	58.497	
348.800	43.538	
348.900	30.353	
349.000	33.055	
349.100	32.554	
349.200	34.057	
349.300	42.340	
349.400	52.731	
349.500	40.714	
349.600	35.578	
349.700	39.761	
349.800	33.312	
349.900	54.106	
350.000	44.213	
350.100	46.425	
350.200	40.023	
350.300	36.616	
350.400	44.861	
350.500	47.576	
350.600	34.940	
350.700	43.576	
350.800	30.996	
350.900	41.200	
351.000	31.610	
351.100	46.138	
351.200	59.920	
351.300	48.537	
351.400	42.010	
351.500	43.698	
351.600	42.989	
351.700	48.307	
351.800	32.558	
351.900	31.677	
352.000	47.669	
352.100	29.320	
352.200	24.756	
352.300	52.670	
352.400	53.596	
352.500	51.217	
352.600	33.195	
352.700	40.593	
352.800	45.017	
352.900	40.034	
353.000	53.686	
353.100	42.084	
353.200	46.147	
353.300	35.459	
353.400	44.728	
353.500	37.620	
353.600	31.827	
353.700	47.250	
353.800	50.704	
353.900	27.044	
354.000	46.490	
354.100	43.421	
354.200	34.752	
354.300	37.162	
354.400	44.280	
354.500	28.276	
354.600	54.859	
354.700	41.109	
354.800	43.069	
354.900	53.510	
355.000	40.996	
355.100	32.864	
355.200	47.503	
355.300	47.376	
355.400	59.925	
355.500	55.989	
355.600	47.178	
355.700	40.061	
355.800	33.113	
355.900	45.844	
356.000	56.078	
356.100	44.522	
356.200	30.319	
356.300	34.566	
356.400	57.191	
356.500	46.809	
356.600	45.687	
356.700	41.391	
356.800	45.297	
356.900	39.451	
357.000	52.261	
357.100	62.328	
357.200	37.307	
357.300	45.704	
357.400	50.583	
357.500	44.074	
357.600	45.513	
357.700	49.995	
357.800	43.310	
357.900	42.815	
358.000	46.063	
358.100	56.583	
358.200	45.033	
358.300	42.227	
358.400	45.648	
358.500	56.600	
358.600	44.717	
358.700	45.775	
358.800	42.965	
358.900	32.238	
359.000	38.281	
359.100	41.328	
359.200	50.380	
359.300	44.236	
359.400	46.346	
359.500	47.700	
359.600	42.798	
359.700	48.657	
359.800	38.875	
359.900	40.289	
360.000	61.680	
360.100	33.361	
360.200	44.839	
360.300	37.904	
360.400	46.846	
360.500	37.320	
360.600	35.478	
360.700	55.959	
360.800	41.028	
360.900	56.699	
361.000	48.613	
361.100	56.137	
361.200	42.885	
361.300	34.905	
361.400	45.762	
361.500	38.925	
361.600	42.370	
361.700	59.170	
361.800	40.252	
361.900	42.160	
362.000	50.728	
362.100	46.643	
362.200	38.586	
362.300	36.656	
362.400	22.688	
362.500	59.104	
362.600	63.080	
362.700	45.250	
362.800	53.056	
362.900	53.657	
363.000	48.748	
363.100	39.914	
363.200	44.384	
363.300	41.077	
363.400	40.503	
363.500	40.522	
363.600	57.062	
363.700	38.554	
363.800	56.217	
363.900	47.310	
364.000	50.539	
364.100	35.443	
364.200	45.871	
364.300	49.296	
364.400	52.083	
364.500	30.734	
364.600	46.176	
364.700	39.043	
364.800	45.731	
364.900	50.818	
365.000	48.713	
365.100	52.734	
365.200	39.932	
365.300	40.720	
365.400	57.458	
365.500	38.653	
365.600	42.236	
365.700	49.908	
365.800	44.057	
365.900	40.064	
366.000	30.403	
366.100	51.457	
366.200	53.163	
366.300	40.039	
366.400	44.395	
366.500	48.285	
366.600	39.156	
366.700	32.585	
366.800	54.338	
366.900	27.753	
367.000	35.156	
367.100	46.977	
367.200	35.071	
367.300	47.645	
367.400	47.845	
367.500	44.166	
367.600	29.443	
367.700	38.427	
367.800	48.835	
367.900	54.466	
368.000	37.981	
368.100	48.655	
368.200	45.213	
368.300	38.656	
368.400	44.037	
368.500	26.518	
368.600	62.493	
368.700	41.392	
368.800	43.157	
368.900	55.747	
369.000	46.640	
369.100	34.342	
369.200	52.181	
369.300	42.098	
369.400	49.250	
369.500	49.572	
369.600	43.520	
369.700	56.383	
369.800	45.211	
369.900	45.483	
370.000	43.828	
370.100	45.287	
370.200	42.222	
370.300	41.666	
370.400	29.165	
370.500	56.844	
370.600	38.445	
370.700	22.682	
370.800	53.682	
370.900	54.054	
371.000	31.926	
371.100	39.570	
371.200	44.142	
371.300	51.581	
371.400	49.837	
371.500	38.377	
371.600	36.535	
371.700	35.777	
371.800	43.096	
371.900	48.462	
372.000	53.130	
372.100	39.491	
372.200	35.204	
372.300	50.586	
372.400	41.941	
372.500	44.782	
372.600	37.228	
372.700	34.139	
372.800	44.295	
372.900	52.236	
373.000	44.638	
373.100	46.825	
373.200	43.144	
373.300	32.909	
373.400	37.515	
373.500	48.690	
373.600	44.968	
373.700	43.309	
373.800	58.354	
373.900	44.478	
374.000	52.815	
374.100	45.328	
374.200	32.056	
374.300	47.984	
374.400	42.009	
374.500	36.906	
374.600	38.357	
374.700	46.451	
374.800	27.064	
374.900	32.503	
375.000	57.681	
375.100	27.021	
375.200	48.813	
375.300	46.963	
375.400	43.290	
375.500	42.651	
375.600	49.225	
375.700	35.942	
375.800	50.559	
375.900	35.600	
376.000	32.799	
376.100	43.717	
376.200	22.210	
376.300	60.640	
376.400	44.015	
376.500	41.775	
376.600	42.610	
376.700	39.277	
376.800	41.835	
376.900	34.578	
377.000	50.969	
377.100	51.862	
377.200	32.329	
377.300	57.775	
377.400	43.951	
377.500	40.816	
377.600	33.534	
377.700	46.384	
377.800	44.050	
377.900	45.687	
378.000	33.370	
378.100	35.092	
378.200	50.036	
378.300	56.556	
378.400	43.433	
378.500	24.690	
378.600	59.924	
378.700	62.283	
378.800	48.712	
378.900	25.988	
379.000	22.432	
379.100	40.566	
379.200	43.660	
379.300	37.692	
379.400	43.549	
379.500	53.091	
379.600	42.542	
379.700	40.167	
379.800	46.376	
379.900	36.235	
380.000	36.434	
380.100	40.158	
380.200	37.412	
380.300	43.382	
380.400	48.255	
380.500	32.877	
380.600	38.146	
380.700	41.688	
380.800	53.090	
380.900	50.257	
381.000	55.423	
381.100	31.847	
381.200	44.288	
381.300	42.613	
381.400	42.784	
381.500	42.853	
381.600	27.544	
381.700	39.801	
381.800	42.064	
381.900	41.483	
382.000	37.878	
382.100	45.884	
382.200	32.683	
382.300	45.550	
382.400	47.994	
382.500	28.980	
382.600	41.265	
382.700	45.415	
382.800	48.978	
382.900	42.105	
383.000	53.913	
383.100	27.958	
383.200	44.192	
383.300	22.921	
383.400	38.954	
383.500	50.785	
383.600	54.860	
383.700	40.823	
383.800	24.252	
383.900	35.977	
384.000	41.299	
384.100	43.033	
384.200	41.179	
384.300	37.230	
384.400	31.661	
384.500	41.251	
384.600	51.832	
384.700	50.435	
384.800	37.384	
384.900	38.866	
385.000	36.011	
385.100	39.451	
385.200	47.924	
385.300	38.820	
385.400	38.920	
385.500	47.871	
385.600	29.893	
385.700	37.498	
385.800	40.074	
385.900	42.224	
386.000	46.366	
386.100	43.220	
386.200	44.316	
386.300	22.885	
386.400	65.042	
386.500	47.023	
386.600	32.775	
386.700	43.419	
386.800	31.737	
386.900	36.088	
387.000	44.186	
387.100	45.575	
387.200	26.889	
387.300	42.527	
387.400	40.683	
387.500	47.830	
387.600	28.075	
387.700	43.071	
387.800	46.491	
387.900	29.790	
388.000	40.664	
388.100	49.196	
388.200	36.895	
388.300	29.505	
388.400	40.376	
388.500	38.045	
388.600	43.593	
388.700	37.183	
388.800	42.875	
388.900	47.188	
389.000	35.990	
389.100	67.696	
389.200	35.754	
389.300	26.389	
389.400	31.074	
389.500	43.334	
389.600	24.707	
389.700	57.819	
389.800	39.402	
389.900	27.987	
390.000	28.832	
390.100	35.720	
390.200	31.259	
390.300	29.529	
390.400	32.663	
390.500	38.914	
390.600	23.260	
390.700	15.693	
390.800	12.986	
390.900	34.510	
391.000	24.647	
391.100	13.998	
391.200	13.879	
391.300	18.345	
391.400	-4.968	
391.500	14.033	
391.600	16.784	
391.700	6.399	
391.800	12.939	
391.900	-6.115	
392.000	3.608	
392.100	2.279	
392.200	6.794	
392.300	-5.800	
392.400	11.394	
392.500	-2.979	
392.600	9.141	
392.700	-2.876	
392.800	1.836	
392.900	-20.870	
393.000	-6.015	
393.100	9.531	
393.200	-3.486	
393.300	-0.088	
393.400	-1.894	
393.500	3.660	
393.600	-13.166	
393.700	-14.491	
393.800	3.797	
393.900	-4.502	
394.000	-9.325	
394.100	5.657	
394.200	0.428	
394.300	-10.504	
394.400	-3.423	
394.500	-11.608	
394.600	-8.225	
394.700	-11.363	
394.800	-15.158	
394.900	-21.969	
395.000	-20.712	
395.100	-17.721	
395.200	8.439	
395.300	-13.999	
395.400	-10.304	
395.500	-13.248	
395.600	-10.845	
395.700	-12.790	
395.800	-4.920	
395.900	-21.521	
396.000	-9.189	
396.100	-2.790	
396.200	-10.689	
396.300	-0.778	
396.400	-18.928	
396.500	2.187	
396.600	-1.026	
396.700	-12.535	
396.800	-12.152	
396.900	-4.523	
397.000	-20.183	
397.100	-12.156	
397.200	-6.466	
397.300	-9.950	
397.400	-17.370	
397.500	-6.327	
397.600	-11.550	
397.700	-3.541	
397.800	-15.753	
397.900	-7.873	
398.000	-11.867	
398.100	-20.809	
398.200	-2.392	
398.300	-25.096	
398.400	-23.816	
398.500	-9.039	
398.600	-16.597	
398.700	9.132	
398.800	-26.005	
398.900	-12.069	
399.000	-5.943	
399.100	-11.541	
399.200	-2.897	
399.300	-8.879	
399.400	-0.826	
399.500	-5.754	
399.600	-14.200	
399.700	-11.531	
399.800	-12.560	
399.900	-17.852	
400.000	-12.766	
400.100	13.562	
400.200	-30.966	
400.300	-3.207	
400.400	-14.624	
400.500	-9.549	
400.600	-12.611	
400.700	-19.566	
400.800	-14.270	
400.900	-2.584	
401.000	2.731	
401.100	-14.084	
401.200	-0.968	
401.300	-20.110	
401.400	-0.825	
401.500	-15.508	
401.600	-7.268	
401.700	-18.491	
401.800	-12.057	
401.900	-22.773	
402.000	-22.472	
402.100	-0.962	
402.200	2.603	
402.300	-10.266	
402.400	-5.904	
402.500	-2.312	
402.600	-21.783	
402.700	-11.614	
402.800	0.204	
402.900	-9.011	
403.000	-5.268	
403.100	1.796	
403.200	-24.076	
403.300	-7.035	
403.400	-26.398	
403.500	-11.215	
403.600	1.741	
403.700	-12.222	
403.800	-4.273	
403.900	-4.027	
404.000	-13.652	
404.100	-8.793	
404.200	0.832	
404.300	-10.009	
404.400	-12.265	
404.500	-2.403	
404.600	-17.093	
404.700	-14.538	
404.800	-10.662	
404.900	-17.281	
405.000	-7.566	
405.100	-14.106	
405.200	-14.594	
405.300	-13.482	
405.400	-6.847	
405.500	-7.580	
405.600	-8.601	
405.700	-13.687	
405.800	-10.159	
405.900	-8.930	
406.000	-7.077	
406.100	-14.323	
406.200	-7.913	
406.300	-18.603	
406.400	-13.696	
406.500	6.086	
406.600	-3.341	
406.700	-11.374	
406.800	-13.899	
406.900	-3.811	
407.000	-14.649	
407.100	-7.354	
407.200	-17.843	
407.300	-12.989	
407.400	-5.227	
407.500	-14.282	
407.600	-15.046	
407.700	-7.281	
407.800	-11.285	
407.900	-3.664	
408.000	-8.470	
408.100	-20.700	
408.200	-14.949	
408.300	-10.373	
408.400	-18.280	
408.500	2.132	
408.600	-12.150	
408.700	-21.132	
408.800	-24.479	
408.900	-14.060	
409.000	-0.995	
409.100	-23.738	
409.200	-0.001	
409.300	-24.108	
409.400	2.114	
409.500	-2.105	
409.600	-18.736	
409.700	-19.257	
409.800	-0.161	
409.900	-22.175	
410.000	-10.295	
410.100	-16.573	
410.200	-21.363	
410.300	-17.343	
410.400	-4.909	
410.500	-3.768	
410.600	-4.677	
410.700	-22.682	
410.800	-14.942	
410.900	-12.988	
411.000	-9.271	
411.100	-0.226	
411.200	-4.425	
411.300	-25.718	
411.400	-2.976	
411.500	-20.047	
411.600	-13.581	
411.700	-10.241	
411.800	-24.645	
411.900	-1.065	
412.000	-10.714	
412.100	-26.072	
412.200	-12.227	
412.300	-9.022	
412.400	-24.503	
412.500	-11.386	
412.600	-13.694	
412.700	-19.359	
412.800	-7.120	
412.900	-11.358	
413.000	-16.992	
413.100	-22.334	
413.200	-7.990	
413.300	-7.369	
413.400	-10.098	
413.500	-20.677	
413.600	-13.044	
413.700	-33.097	
413.800	-2.511	
413.900	-25.009	
414.000	-6.770	
414.100	-16.517	
414.200	-14.772	
414.300	-17.201	
414.400	-17.545	
414.500	-10.915	
414.600	-9.874	
414.700	-21.026	
414.800	-5.941	
414.900	-25.473	
415.000	-21.393	
415.100	-9.016	
415.200	-14.014	
415.300	-20.193	
415.400	-5.938	
415.500	-11.475	
415.600	-15.631	
415.700	-24.515	
415.800	-24.858	
415.900	-25.022	
416.000	16.439	
416.100	-13.129	
416.200	-16.786	
416.300	-21.473	
416.400	-23.091	
416.500	-8.811	
416.600	-9.738	
416.700	-15.003	
416.800	-13.865	
416.900	-20.011	
417.000	-31.090	
417.100	-13.253	
417.200	-10.172	
417.300	-15.548	
417.400	-22.224	
417.500	-19.179	
417.600	-2.890	
417.700	-13.666	
417.800	-26.426	
417.900	-14.623	
418.000	-13.021	
418.100	-20.456	
418.200	-19.776	
418.300	1.274	
418.400	-14.087	
418.500	-14.312	
418.600	-14.794	
418.700	-29.222	
418.800	-20.407	
418.900	-20.177	
419.000	-20.708	
419.100	-22.384	
419.200	-10.744	
419.300	-9.731	
419.400	-29.948	
419.500	-22.858	
419.600	-7.157	
419.700	-2.240	
419.800	-19.854	
419.900	-15.131	
420.000	-27.712	
420.100	-9.232	
420.200	-16.150	
420.300	-33.516	
420.400	-0.789	
420.500	-14.137	
420.600	-17.057	
420.700	-37.330	
420.800	-21.372	
420.900	-15.669	
421.000	-9.433	
421.100	-18.657	
421.200	-27.440	
421.300	-7.869	
421.400	-18.359	
421.500	-16.008	
421.600	-19.978	
421.700	-35.004	
421.800	-11.970	
421.900	-22.538	
422.000	-10.741	
422.100	-27.837	
422.200	-4.949	
422.300	-25.638	
422.400	-18.553	
422.500	-26.482	
422.600	-40.706	
422.700	-18.970	
422.800	-15.917	
422.900	-28.276	
423.000	-15.508	
423.100	-24.886	
423.200	-15.732	
423.300	-10.033	
423.400	-15.915	
423.500	-35.837	
423.600	-16.986	
423.700	-16.764	
423.800	-11.357	
423.900	-7.571	
424.000	-22.858	
424.100	-24.303	
424.200	-18.425	
424.300	-14.499	
424.400	-43.431	
424.500	-5.038	
424.600	-10.809	
424.700	-15.648	
424.800	-23.663	
424.900	-21.608	
425.000	-22.429	
425.100	-6.633	
425.200	-17.700	
425.300	-24.602	
425.400	-14.463	
425.500	-25.929	
425.600	-34.029	
425.700	-29.526	
425.800	-18.750	
425.900	-11.969	
426.000	-8.702	
426.100	-25.335	
426.200	-19.152	
426.300	4.616	
426.400	-24.120	
426.500	-22.003	
426.600	-23.603	
426.700	-14.716	
426.800	-33.974	
426.900	-29.727	
427.000	-18.382	
427.100	-8.543	
427.200	-11.147	
427.300	-4.759	
427.400	-43.449	
427.500	-27.161	
427.600	-13.710	
427.700	-35.242	
427.800	-5.796	
427.900	-28.909	
428.000	-23.418	
428.100	-25.063	
428.200	-1.082	
428.300	-23.127	
428.400	-24.867	
428.500	-21.215	
428.600	-11.671	
428.700	-28.084	
428.800	-20.725	
428.900	-18.643	
429.000	-15.237	
429.100	-17.882	
429.200	-21.858	
429.300	-14.112	
429.400	-20.869	
429.500	-25.732	
429.600	-23.353	
429.700	-23.329	
429.800	-21.919	
429.900	-27.289	
430.000	-20.766	
430.100	-24.022	
430.200	-11.297	
430.300	-19.909	
430.400	-5.282	
430.500	-15.838	
430.600	-34.584	
430.700	-21.149	
430.800	-18.425	
430.900	-31.737	
431.000	-8.906	
431.100	-18.677	
431.200	-18.620	
431.300	-23.269	
431.400	-13.383	
431.500	-9.804	
431.600	-22.784	
431.700	-28.215	
431.800	-24.485	
431.900	-29.459	
432.000	-38.291	
432.100	-17.183	
432.200	-19.585	
432.300	-12.240	
432.400	-6.850	
432.500	-21.608	
432.600	-32.416	
432.700	-23.450	
432.800	-5.207	
432.900	-17.465	
433.000	-18.186	
433.100	-25.463	
433.200	-21.952	
433.300	14.124	
433.400	-26.677	
433.500	-27.995	
433.600	-27.433	
433.700	0.674	
433.800	-16.023	
433.900	-40.546	
434.000	-4.269	
434.100	-31.657	
434.200	-7.518	
434.300	-30.003	
434.400	-25.603	
434.500	-17.192	
434.600	-12.058	
434.700	-21.412	
434.800	-9.367	
434.900	-26.940	
435.000	-24.270	
435.100	-22.382	
435.200	-13.124	
435.300	-7.954	
435.400	-18.327	
435.500	-24.003	
435.600	-7.508	
435.700	-16.105	
435.800	-28.364	
435.900	-15.503	
436.000	-22.910	
436.100	-19.242	
436.200	-8.428	
436.300	-39.481	
436.400	-12.422	
436.500	-29.274	
436.600	-7.457	
436.700	-15.184	
436.800	-24.525	
436.900	-4.661	
437.000	-22.989	
437.100	-26.256	
437.200	-7.998	
437.300	-23.292	
437.400	-13.687	
437.500	-16.539	
437.600	-20.727	
437.700	-30.122	
437.800	-7.231	
437.900	-18.192	
438.000	-23.727	
438.100	-15.216	
438.200	-10.122	
438.300	-31.504	
438.400	-8.361	
438.500	-32.982	
438.600	-24.514	
438.700	-29.889	
438.800	-12.468	
438.900	-31.879	
439.000	-21.524	
439.100	-10.415	
439.200	-25.125	
439.300	-14.855	
439.400	-11.585	
439.500	-14.459	
439.600	-20.441	
439.700	-22.489	
439.800	-6.039	
439.900	-26.406	
440.000	-10.780	
440.100	-23.872	
440.200	0.815	
440.300	-27.934	
440.400	-28.596	
440.500	-20.933	
440.600	-18.510	
440.700	-28.415	
440.800	-24.082	
440.900	-11.199	
441.000	-13.981	
441.100	-12.746	
441.200	-23.117	
441.300	-40.652	
441.400	-8.659	
441.500	-27.291	
441.600	-10.656	
441.700	-23.370	
441.800	-17.017	
441.900	-34.525	
442.000	-16.958	
442.100	-16.493	
442.200	-16.437	
442.300	-9.154	
442.400	-17.299	
442.500	-5.904	
442.600	-30.003	
442.700	-21.238	
442.800	-19.105	
442.900	-31.513	
443.000	-25.764	
443.100	-2.180	
443.200	-11.227	
443.300	-21.848	
443.400	-20.192	
443.500	-11.831	
443.600	-29.794	
443.700	-9.504	
443.800	-25.567	
443.900	-27.451	
444.000	-5.875	
444.100	-28.664	
444.200	-23.426	
444.300	-11.992	
444.400	-12.067	
444.500	-2.865	
444.600	-32.535	
444.700	-22.033	
444.800	-31.306	
444.900	-19.195	
445.000	-9.840	
445.100	-13.447	
445.200	-29.589	
445.300	-19.606	
445.400	-15.139	
445.500	-20.885	
445.600	-15.755	
445.700	-14.546	
445.800	-4.198	
445.900	-35.174	
446.000	-8.084	
446.100	-15.838	
446.200	-6.239	
446.300	-9.937	
446.400	-3.342	
446.500	-32.227	
446.600	-25.337	
446.700	-2.724	
446.800	-25.917	
446.900	-10.848	
447.000	-20.400	
447.100	-10.855	
447.200	-23.139	
447.300	-14.262	
447.400	-17.083	
447.500	-19.723	
447.600	-7.324	
447.700	-22.746	
447.800	-12.537	
447.900	-36.330	
448.000	-9.271	
448.100	-16.565	
448.200	-16.415	
448.300	-19.993	
448.400	-14.327	
448.500	-6.843	
448.600	-32.425	
448.700	-5.750	
448.800	-6.453	
448.900	-24.008	
449.000	-21.576	
449.100	-18.583	
449.200	-21.591	
449.300	-17.013	
449.400	-6.562	
449.500	-24.379	
449.600	-32.029	
449.700	-19.638	
449.800	-5.092	
449.900	-6.209	
450.000	-21.351	
450.100	-11.432	
450.200	-13.135	
450.300	-25.387	
450.400	-15.735	
450.500	-20.221	
450.600	-3.626	
450.700	-5.251	
450.800	-30.684	
450.900	-22.738	
451.000	-20.602	
451.100	-6.734	
451.200	-16.685	
451.300	-8.429	
451.400	-24.391	
451.500	-10.226	
451.600	-20.843	
451.700	-16.440	
451.800	-13.743	
451.900	-12.314	
452.000	-12.003	
452.100	-17.901	
452.200	-19.315	
452.300	-7.597	
452.400	-16.143	
452.500	-15.494	
452.600	-20.663	
452.700	-3.562	
452.800	-22.249	
452.900	-21.171	
453.000	-10.168	
453.100	-12.642	
453.200	-14.290	
453.300	-17.581	
453.400	-6.812	
453.500	-12.075	
453.600	-10.487	
453.700	-10.015	
453.800	-14.293	
453.900	-34.607	
454.000	-15.677	
454.100	-14.686	
454.200	-7.637	
454.300	-24.807	
454.400	-8.685	
454.500	-6.707	
454.600	-9.960	
454.700	-7.961	
454.800	-21.673	
454.900	-16.793	
455.000	-17.487	
455.100	-20.080	
455.200	-13.618	
455.300	-17.737	
455.400	-1.165	
455.500	-15.128	
455.600	-11.968	
455.700	-14.259	
455.800	-11.314	
455.900	-32.854	
456.000	-15.514	
456.100	-19.253	
456.200	-16.394	
456.300	0.971	
456.400	-25.647	
456.500	-13.147	
456.600	-21.962	
456.700	-9.778	
456.800	-16.474	
456.900	-23.882	
457.000	-8.177	
457.100	-11.784	
457.200	-24.285	
457.300	-12.979	
457.400	-14.038	
457.500	-19.139	
457.600	-11.847	
457.700	-12.833	
457.800	-19.518	
457.900	-24.101	
458.000	-25.310	
458.100	3.148	
458.200	-13.251	
458.300	-21.758	
458.400	-12.449	
458.500	-3.231	
458.600	-19.081	
458.700	-12.868	
458.800	-31.535	
458.900	-15.459	
459.000	-7.463	
459.100	-3.665	
459.200	-12.137	
459.300	-12.945	
459.400	-15.817	
459.500	-12.257	
459.600	-27.530	
459.700	0.063	
459.800	-12.092	
459.900	-22.301	
460.000	-28.912	
460.100	-3.579	
460.200	-20.352	
460.300	-2.765	
460.400	-13.681	
460.500	-24.644	
460.600	-22.672	
460.700	-31.659	
460.800	-17.039	
460.900	-8.364	
461.000	-3.408	
461.100	-15.302	
461.200	-17.643	
461.300	-6.702	
461.400	-18.657	
461.500	-7.116	
461.600	-16.172	
461.700	-1.690	
461.800	-21.746	
461.900	-17.209	
462.000	-9.936	
462.100	-17.720	
462.200	-22.913	
462.300	-0.569	
462.400	-21.308	
462.500	-2.534	
462.600	-14.090	
462.700	-18.357	
462.800	-28.953	
462.900	-16.881	
463.000	-12.732	
463.100	-4.854	
463.200	-16.476	
463.300	-16.546	
463.400	-23.641	
463.500	-30.102	
463.600	-18.364	
463.700	-2.855	
463.800	-11.298	
463.900	-3.880	
464.000	-4.782	
464.100	-26.747	
464.200	-8.499	
464.300	-17.585	
464.400	-13.350	
464.500	-13.587	
464.600	-18.063	
464.700	-11.796	
464.800	-11.643	
464.900	-27.040	
465.000	-2.269	
465.100	-7.132	
465.200	-10.219	
465.300	-1.782	
465.400	-28.711	
465.500	-9.653	
465.600	-17.107	
465.700	-13.533	
465.800	5.384	
465.900	-24.203	
466.000	-16.376	
466.100	-15.812	
466.200	-16.869	
466.300	-4.826	
466.400	-21.088	
466.500	-8.778	
466.600	-12.737	
466.700	-13.061	
466.800	-16.589	
466.900	-16.977	
467.000	-7.955	
467.100	-11.610	
467.200	-16.249	
467.300	-12.770	
467.400	-5.161	
467.500	-12.303	
467.600	-16.805	
467.700	-3.961	
467.800	-8.172	
467.900	-10.857	
468.000	-7.962	
468.100	0.703	
468.200	-10.295	
468.300	-29.799	
468.400	-17.989	
468.500	-17.732	
468.600	-17.493	
468.700	-5.097	
468.800	-14.906	
468.900	-10.608	
469.000	-18.635	
469.100	-24.229	
469.200	9.329	
469.300	-19.944	
469.400	-7.912	
469.500	-25.709	
469.600	-13.511	
469.700	-2.349	
469.800	-5.462	
469.900	-9.314	
470.000	-5.907	
470.100	-24.671	
470.200	-2.920	
470.300	-12.712	
470.400	-14.172	
470.500	-7.204	
470.600	-21.336	
470.700	-19.757	
470.800	-7.092	
470.900	-14.291	
471.000	-18.565	
471.100	-13.222	
471.200	-10.557	
471.300	-5.512	
471.400	-17.847	
471.500	-3.643	
471.600	-18.564	
471.700	-9.939	
471.800	-21.558	
471.900	-21.735	
472.000	-19.698	
472.100	-8.046	
472.200	-21.337	
472.300	-21.223	
472.400	-3.034	
472.500	-12.720	
472.600	-10.153	
472.700	-25.431	
472.800	-18.306	
472.900	-20.061	
473.000	3.858	
473.100	-25.281	
473.200	-20.851	
473.300	-7.412	
473.400	-20.747	
473.500	-11.666	
473.600	-6.822	
473.700	-11.854	
473.800	-1.187	
473.900	-8.970	
474.000	-17.603	
474.100	-28.146	
474.200	-3.713	
474.300	-16.137	
474.400	-6.473	
474.500	-5.406	
474.600	-24.883	
474.700	-21.251	
474.800	-11.137	
474.900	-13.869	
475.000	-4.556	
475.100	-15.051	
475.200	4.495	
475.300	-8.153	
475.400	-8.025	
475.500	-22.136	
475.600	-2.727	
475.700	-15.183	
475.800	-23.938	
475.900	-14.148	
476.000	-2.646	
476.100	1.492	
476.200	-20.112	
476.300	-12.474	
476.400	2.767	
476.500	-13.799	
476.600	-22.445	
476.700	-5.186	
476.800	-10.140	
476.900	-18.693	
477.000	-14.683	
477.100	-12.610	
477.200	-8.238	
477.300	-6.967	
477.400	-32.804	
477.500	10.544	
477.600	-9.853	
477.700	-13.626	
477.800	-16.709	
477.900	-7.907	
478.000	-1.624	
478.100	-6.604	
478.200	-10.756	
478.300	-19.073	
478.400	-17.203	
478.500	-13.356	
478.600	-15.975	
478.700	-17.176	
478.800	-3.082	
478.900	-7.771	
479.000	-15.458	
479.100	-3.564	
479.200	-18.686	
479.300	-3.260	
479.400	-11.607	
479.500	-17.346	
479.600	-22.705	
479.700	4.623	
479.800	-9.984	
479.900	-8.194	
480.000	-9.226	
480.100	2.244	
480.200	-16.797	
480.300	14.525	
480.400	6.580	
480.500	7.692	
480.600	-4.769	
480.700	17.092	
480.800	-2.402	
480.900	11.042	
481.000	12.636	
481.100	5.742	
481.200	15.146	
481.300	11.440	
481.400	8.987	
481.500	13.198	
481.600	16.692	
481.700	10.962	
481.800	16.760	
481.900	9.701	
482.000	9.501	
482.100	23.015	
482.200	23.252	
482.300	33.366	
482.400	10.712	
482.500	4.444	
482.600	28.352	
482.700	7.632	
482.800	23.810	
482.900	13.569	
483.000	5.851	
483.100	19.048	
483.200	31.864	
483.300	8.971	
483.400	6.288	
483.500	22.086	
483.600	23.168	
483.700	6.402	
483.800	9.485	
483.900	18.906	
484.000	30.211	
484.100	12.377	
484.200	11.092	
484.300	20.704	
484.400	8.287	
484.500	12.638	
484.600	18.329	
484.700	29.965	
484.800	26.088	
484.900	11.867	
485.000	7.734	
485.100	1.269	
485.200	14.589	
485.300	7.028	
485.400	25.365	
485.500	15.500	
485.600	22.114	
485.700	12.894	
485.800	11.046	
485.900	16.692	
486.000	14.405	
486.100	10.311	
486.200	20.212	
486.300	8.826	
486.400	20.327	
486.500	3.300	
486.600	19.961	
486.700	8.410	
486.800	-5.470	
486.900	24.147	
487.000	20.234	
487.100	14.748	
487.200	12.533	
487.300	13.031	
487.400	24.060	
487.500	13.806	
487.600	6.617	
487.700	21.468	
487.800	8.913	
487.900	15.132	
488.000	17.171	
488.100	23.351	
488.200	5.812	
488.300	3.723	
488.400	17.339	
488.500	14.008	
488.600	17.181	
488.700	18.126	
488.800	8.308	
488.900	17.226	
489.000	13.501	
489.100	31.722	
489.200	-1.938	
489.300	20.446	
489.400	17.513	
489.500	10.301	
489.600	23.130	
489.700	22.394	
489.800	15.431	
489.900	20.797	
490.000	17.928	
490.100	28.723	
490.200	11.798	
490.300	0.483	
490.400	25.609	
490.500	15.977	
490.600	23.561	
490.700	10.071	
490.800	24.195	
490.900	22.245	
491.000	20.928	
491.100	17.494	
491.200	7.459	
491.300	26.371	
491.400	13.046	
491.500	12.021	
491.600	24.448	
491.700	18.099	
491.800	34.019	
491.900	20.409	
492.000	31.254	
492.100	23.099	
492.200	20.214	
492.300	17.213	
492.400	34.787	
492.500	19.347	
492.600	34.410	
492.700	12.836	
492.800	31.112	
492.900	23.831	
493.000	28.130	
493.100	36.844	
493.200	29.875	
493.300	19.291	
493.400	10.109	
493.500	31.752	
493.600	18.828	
493.700	32.295	
493.800	27.296	
493.900	31.577	
494.000	28.245	
494.100	28.355	
494.200	28.028	
494.300	31.056	
494.400	45.384	
494.500	21.630	
494.600	29.306	
494.700	32.959	
494.800	37.210	
494.900	13.735	
495.000	32.234	
495.100	26.113	
495.200	41.594	
495.300	39.803	
495.400	32.678	
495.500	16.625	
495.600	25.543	
495.700	37.704	
495.800	42.801	
495.900	21.448	
496.000	36.562	
496.100	36.823	
496.200	37.633	
496.300	36.480	
496.400	19.870	
496.500	28.136	
496.600	51.838	
496.700	31.458	
496.800	41.369	
496.900	44.010	
497.000	27.664	
497.100	48.662	
497.200	36.132	
497.300	35.965	
497.400	41.289	
497.500	39.068	
497.600	46.080	
497.700	40.587	
497.800	41.824	
497.900	46.373	
498.000	47.886	
498.100	29.528	
498.200	50.691	
498.300	49.958	
498.400	50.656	
498.500	38.407	
498.600	43.436	
498.700	42.918	
498.800	33.678	
498.900	31.205	
499.000	52.134	
499.100	46.588	
499.200	40.364	
499.300	47.558	
499.400	36.592	
499.500	36.383	
499.600	47.258	
499.700	58.970	
499.800	37.091	
499.900	37.453	
500.000	48.642	
500.100	54.304	
500.200	35.720	
500.300	34.464	
500.400	64.818	
500.500	18.762	
500.600	51.177	
500.700	44.130	
500.800	42.975	
500.900	48.074	
501.000	43.192	
501.100	45.023	
501.200	50.888	
501.300	41.115	
501.400	44.647	
501.500	51.292	
501.600	50.521	
501.700	43.875	
501.800	40.641	
501.900	36.725	
502.000	42.241	
502.100	39.445	
502.200	22.910	
502.300	42.875	
502.400	56.594	
502.500	33.160	
502.600	47.421	
502.700	49.877	
502.800	50.673	
502.900	39.178	
503.000	24.748	
503.100	49.196	
503.200	45.537	
503.300	46.306	
503.400	47.267	
503.500	41.245	
503.600	51.030	
503.700	29.141	
503.800	37.643	
503.900	57.987	
504.000	40.965	
504.100	52.034	
504.200	38.876	
504.300	50.471	
504.400	38.276	
504.500	46.634	
504.600	43.003	
504.700	50.350	
504.800	42.571	
504.900	44.105	
505.000	48.646	
505.100	52.655	
505.200	42.676	
505.300	48.907	
505.400	54.577	
505.500	40.475	
505.600	61.084	
505.700	51.809	
505.800	43.948	
505.900	45.068	
506.000	46.372	
506.100	35.435	
506.200	61.509	
506.300	50.117	
506.400	31.739	
506.500	36.697	
506.600	53.424	
506.700	59.756	
506.800	43.906	
506.900	45.001	
507.000	43.892	
507.100	36.001	
507.200	55.427	
507.300	40.949	
507.400	52.082	
507.500	48.007	
507.600	50.591	
507.700	54.424	
507.800	55.242	
507.900	47.339	
508.000	47.627	
508.100	48.544	
508.200	35.780	
508.300	49.673	
508.400	49.693	
508.500	36.980	
508.600	49.444	
508.700	36.988	
508.800	36.852	
508.900	45.557	
509.000	40.015	
509.100	50.465	
509.200	61.922	
509.300	52.427	
509.400	44.683	
509.500	39.497	
509.600	36.185	
509.700	51.770	
509.800	43.867	
509.900	43.396	
510.000	56.770	
510.100	53.619	
510.200	32.009	
510.300	46.463	
510.400	47.747	
510.500	40.586	
510.600	42.075	
510.700	48.285	
510.800	47.719	
510.900	52.134	
511.000	54.754	
511.100	61.765	
511.200	51.855	
511.300	41.782	
511.400	43.895	
511.500	41.762	
511.600	59.930	
511.700	45.999	
511.800	52.167	
511.900	45.743	
512.000	42.712	
512.100	47.810	
512.200	48.394	
512.300	37.992	
512.400	49.462	
512.500	52.486	
512.600	62.669	
512.700	47.210	
512.800	44.903	
512.900	55.057	
513.000	44.174	
513.100	40.194	
513.200	53.021	
513.300	32.457	
513.400	43.510	
513.500	44.606	
513.600	42.046	
513.700	54.463	
513.800	63.277	
513.900	40.295	
514.000	39.366	
514.100	37.467	
514.200	45.378	
514.300	61.367	
514.400	48.190	
514.500	42.913	
514.600	48.138	
514.700	35.619	
514.800	51.859	
514.900	57.826	
515.000	48.391	
515.100	49.135	
515.200	50.624	
515.300	46.124	
515.400	43.765	
515.500	18.343	
515.600	50.820	
515.700	44.538	
515.800	44.567	
515.900	57.480	
516.000	33.327	
516.100	43.901	
516.200	43.711	
516.300	39.125	
516.400	41.709	
516.500	44.743	
516.600	56.110	
516.700	51.750	
516.800	41.066	
516.900	36.687	
517.000	45.083	
517.100	54.013	
517.200	38.241	
517.300	48.076	
517.400	48.156	
517.500	36.725	
517.600	44.917	
517.700	58.103	
517.800	39.726	
517.900	47.618	
518.000	58.946	
518.100	47.256	
518.200	36.987	
518.300	46.791	
518.400	30.195	
518.500	48.474	
518.600	44.447	
518.700	39.816	
518.800	49.663	
518.900	38.877	
519.000	32.095	
519.100	36.321	
519.200	60.213	
519.300	46.861	
519.400	33.280	
519.500	48.312	
519.600	41.605	
519.700	37.350	
519.800	50.763	
519.900	54.330	
520.000	48.427	
520.100	49.104	
520.200	47.805	
520.300	55.116	
520.400	39.172	
520.500	39.938	
520.600	43.661	
520.700	45.007	
520.800	54.091	
520.900	37.683	
521.000	36.734	
521.100	35.942	
521.200	43.803	
521.300	51.124	
521.400	39.717	
521.500	53.550	
521.600	35.878	
521.700	44.302	
521.800	32.938	
521.900	46.796	
522.000	41.971	
522.100	44.247	
522.200	36.108	
522.300	52.643	
522.400	53.462	
522.500	36.030	
522.600	34.505	
522.700	48.017	
522.800	47.044	
522.900	57.514	
523.000	32.451	
523.100	46.546	
523.200	40.027	
523.300	45.749	
523.400	59.795	
523.500	20.250	
523.600	44.840	
523.700	42.888	
523.800	43.774	
523.900	47.030	
524.000	57.678	
524.100	43.175	
524.200	40.266	
524.300	40.428	
524.400	37.739	
524.500	41.562	
524.600	46.493	
524.700	48.488	
524.800	36.087	
524.900	37.356	
525.000	38.261	
525.100	50.883	
525.200	57.473	
525.300	36.898	
525.400	40.997	
525.500	43.154	
525.600	37.042	
525.700	45.450	
525.800	46.604	
525.900	41.247	
526.000	46.200	
526.100	38.812	
526.200	30.071	
526.300	53.339	
526.400	39.688	
526.500	26.368	
526.600	50.204	
526.700	30.338	
526.800	43.592	
526.900	58.611	
527.000	41.324	
527.100	47.439	
527.200	30.767	
527.300	67.136	
527.400	40.882	
527.500	51.315	
527.600	47.192	
527.700	27.327	
527.800	34.763	
527.900	47.609	
528.000	37.827	
528.100	38.029	
528.200	55.630	
528.300	61.416	
528.400	43.310	
528.500	34.999	
528.600	26.064	
528.700	48.495	
528.800	40.727	
528.900	26.577	
529.000	56.256	
529.100	39.499	
529.200	40.844	
529.300	45.865	
529.400	36.926	
529.500	45.596	
529.600	53.653	
529.700	41.679	
529.800	41.636	
529.900	34.882	
530.000	38.332	
530.100	38.692	
530.200	35.289	
530.300	47.160	
530.400	30.779	
530.500	34.406	
530.600	33.055	
530.700	44.622	
530.800	54.830	
530.900	35.602	
531.000	35.802	
531.100	46.938	
531.200	41.367	
531.300	50.520	
531.400	51.008	
531.500	33.461	
531.600	57.345	
531.700	49.381	
531.800	35.358	
531.900	37.619	
532.000	45.362	
532.100	38.426	
532.200	46.831	
532.300	30.124	
532.400	32.055	
532.500	34.708	
532.600	56.960	
532.700	41.453	
532.800	44.425	
532.900	43.919	
533.000	36.377	
533.100	35.682	
533.200	34.978	
533.300	43.154	
533.400	43.502	
533.500	28.730	
533.600	43.878	
533.700	46.069	
533.800	56.083	
533.900	44.160	
534.000	32.932	
534.100	47.981	
534.200	45.324	
534.300	52.119	
534.400	31.662	
534.500	44.464	
534.600	46.874	
534.700	27.615	
534.800	38.847	
534.900	36.450	
535.000	45.808	
535.100	38.474	
535.200	37.682	
535.300	50.550	
535.400	35.401	
535.500	42.621	
535.600	41.337	
535.700	45.233	
535.800	33.769	
535.900	36.628	
536.000	36.258	
536.100	36.248	
536.200	47.541	
536.300	36.284	
536.400	46.344	
536.500	25.814	
536.600	46.070	
536.700	41.277	
536.800	37.809	
536.900	27.645	
537.000	36.900	
537.100	36.829	
537.200	44.403	
537.300	41.408	
537.400	45.672	
537.500	51.400	
537.600	34.858	
537.700	19.648	
537.800	40.593	
537.900	39.047	
538.000	38.100	
538.100	27.340	
538.200	48.615	
538.300	40.438	
538.400	47.967	
538.500	32.777	
538.600	35.182	
538.700	53.130	
538.800	37.308	
538.900	20.489	
539.000	40.543	
539.100	39.341	
539.200	49.723	
539.300	52.842	
539.400	42.354	
539.500	33.381	
539.600	28.146	
539.700	36.077	
539.800	24.154	
539.900	42.855	
540.000	20.746	
540.100	31.731	
540.200	45.234	
540.300	25.282	
540.400	20.153	
540.500	27.251	
540.600	38.893	
540.700	29.880	
540.800	22.518	
540.900	17.215	
541.000	17.939	
541.100	9.601	
541.200	37.205	
541.300	19.077	
541.400	18.859	
541.500	25.523	
541.600	18.174	
541.700	2.694	
541.800	0.320	
541.900	2.975	
542.000	18.363	
542.100	13.720	
542.200	21.934	
542.300	-5.292	
542.400	-6.291	
542.500	9.445	
542.600	2.102	
542.700	1.143	
542.800	4.987	
542.900	0.130	
543.000	4.869	
543.100	-1.570	
543.200	-5.622	
543.300	-7.476	
543.400	13.067	
543.500	-4.984	
543.600	-10.962	
543.700	2.138	
543.800	0.417	
543.900	-12.671	
544.000	-8.440	
544.100	3.328	
544.200	-7.819	
544.300	-18.343	
544.400	-36.187	
544.500	-5.755	
544.600	-9.534	
544.700	-8.127	
544.800	-16.724	
544.900	-9.886	
545.000	0.501	
545.100	-6.907	
545.200	-11.780	
545.300	-16.880	
545.400	-2.439	
545.500	-19.572	
545.600	-2.590	
545.700	-15.602	
545.800	-8.780	
545.900	-14.665	
546.000	-23.413	
546.100	-3.518	
546.200	0.235	
546.300	-30.171	
546.400	-10.189	
546.500	-11.156	
546.600	-8.501	
546.700	-2.842	
546.800	-12.172	
546.900	-25.590	
547.000	-8.042	
547.100	-15.461	
547.200	-7.595	
547.300	-5.623	
547.400	-27.871	
547.500	-18.001	
547.600	-6.871	
547.700	-10.063	
547.800	-1.368	
547.900	-7.625	
548.000	-12.491	
548.100	-29.602	
548.200	-20.458	
548.300	-6.203	
548.400	-22.917	
548.500	-11.516	
548.600	-7.699	
548.700	-3.836	
548.800	-15.129	
548.900	-9.932	
549.000	-7.509	
549.100	0.113	
549.200	-19.876	
549.300	-11.904	
549.400	-22.575	
549.500	-5.604	
549.600	-13.544	
549.700	-5.742	
549.800	-7.642	
549.900	-15.837	
550.000	-10.110	
550.100	-14.734	
550.200	-11.253	
550.300	-4.368	
550.400	-10.611	
550.500	-20.469	
550.600	-5.842	
550.700	-9.266	
550.800	-6.166	
550.900	0.282	
551.000	-7.439	
551.100	-4.927	
551.200	-10.454	
551.300	1.671	
551.400	-1.355	
551.500	-15.088	
551.600	-16.524	
551.700	-3.135	
551.800	-20.828	
551.900	6.677	
552.000	-5.952	
552.100	-8.268	
552.200	-14.477	
552.300	-10.316	
552.400	-17.772	
552.500	-2.869	
552.600	-14.583	
552.700	-10.038	
552.800	-13.142	
552.900	-23.257	
553.000	-21.070	
553.100	-7.970	
553.200	-15.671	
553.300	-3.787	
553.400	6.907	
553.500	-7.135	
553.600	-23.864	
553.700	-3.358	
553.800	-1.200	
553.900	-23.027	
554.000	-12.697	
554.100	-1.952	
554.200	-22.130	
554.300	-15.423	
554.400	1.138	
554.500	-11.735	
554.600	-11.284	
554.700	-4.570	
554.800	-18.288	
554.900	-3.295	
555.000	-1.629	
555.100	-9.530	
555.200	-3.802	
555.300	-25.211	
555.400	-4.584	
555.500	-17.757	
555.600	-4.625	
555.700	-16.286	
555.800	3.611	
555.900	-11.827	
556.000	-7.448	
556.100	3.011	
556.200	-9.367	
556.300	-13.305	
556.400	-11.851	
556.500	-19.420	
556.600	-27.832	
556.700	-1.423	
556.800	-9.206	
556.900	-8.435	
557.000	-7.527	
557.100	-17.196	
557.200	-19.112	
557.300	-2.933	
557.400	-6.991	
557.500	-17.261	
557.600	-10.448	
557.700	-13.120	
557.800	-11.727	
557.900	-9.163	
558.000	-7.648	
558.100	-7.855	
558.200	-12.481	
558.300	-16.769	
558.400	-19.352	
558.500	-13.090	
558.600	-5.045	
558.700	-18.208	
558.800	-14.281	
558.900	-28.481	
559.000	-12.492	
559.100	-9.521	
559.200	-8.278	
559.300	-16.565	
559.400	-9.530	
559.500	-15.267	
559.600	-18.181	
559.700	-6.220	
559.800	-18.923	
559.900	-10.024	
560.000	-10.460	
560.100	-19.554	
560.200	2.327	
560.300	-9.859	
560.400	-18.973	
560.500	-8.166	
560.600	-20.834	
560.700	-19.109	
560.800	-12.599	
560.900	-26.476	
561.000	-19.758	
561.100	-7.932	
561.200	-14.154	
561.300	-10.420	
561.400	-4.398	
561.500	-26.122	
561.600	-14.667	
561.700	-22.454	
561.800	-4.256	
561.900	-18.659	
562.000	-11.543	
562.100	-7.950	
562.200	-7.304	
562.300	-19.499	
562.400	-21.731	
562.500	-5.520	
562.600	-8.414	
562.700	-7.887	
562.800	-17.889	
562.900	-13.801	
563.000	-15.824	
563.100	-9.190	
563.200	-20.955	
563.300	-16.986	
563.400	-22.408	
563.500	0.500	
563.600	-27.743	
563.700	-18.098	
563.800	0.677	
563.900	-9.820	
564.000	-16.017	
564.100	-5.266	
564.200	-16.746	
564.300	-24.244	
564.400	-13.982	
564.500	-15.971	
564.600	-7.495	
564.700	-15.320	
564.800	-21.102	
564.900	-14.875	
565.000	4.848	
565.100	-17.595	
565.200	-17.138	
565.300	-14.547	
565.400	-4.524	
565.500	-17.098	
565.600	-32.744	
565.700	-14.547	
565.800	-17.113	
565.900	-3.350	
566.000	-33.205	
566.100	-29.248	
566.200	-7.842	
566.300	-11.434	
566.400	-12.351	
566.500	-18.963	
566.600	-4.359	
566.700	-15.080	
566.800	-12.234	
566.900	-16.233	
567.000	-16.191	
567.100	-14.317	
567.200	-21.606	
567.300	-32.045	
567.400	-7.805	
567.500	-22.797	
567.600	-26.325	
567.700	-13.722	
567.800	-10.554	
567.900	-20.313	
568.000	-26.091	
568.100	-18.227	
568.200	-25.341	
568.300	-1.145	
568.400	-24.784	
568.500	4.942	
568.600	-23.737	
568.700	-10.633	
568.800	-27.917	
568.900	-14.154	
569.000	-27.170	
569.100	-12.333	
569.200	-13.128	
569.300	-9.470	
569.400	-19.810	
569.500	-16.808	
569.600	-18.547	
569.700	-20.874	
569.800	-18.919	
569.900	-16.180	
570.000	-37.104	
570.100	-8.359	
570.200	-19.351	
570.300	-21.000	
570.400	-16.161	
570.500	-15.399	
570.600	-31.112	
570.700	-22.395	
570.800	-30.410	
570.900	-17.911	
571.000	-23.582	
571.100	-11.258	
571.200	-18.763	
571.300	-4.531	
571.400	-20.156	
571.500	-27.487	
571.600	-25.444	
571.700	-11.070	
571.800	-2.434	
571.900	-24.437	
572.000	-9.986	
572.100	-41.332	
572.200	-24.400	
572.300	-10.251	
572.400	-24.883	
572.500	-10.842	
572.600	-10.125	
572.700	-10.919	
572.800	-16.973	
572.900	-23.425	
573.000	-12.587	
573.100	-27.952	
573.200	-19.741	
573.300	-25.009	
573.400	-26.793	
573.500	-11.970	
573.600	-15.934	
573.700	-20.243	
573.800	-10.468	
573.900	-23.550	
574.000	-41.164	
574.100	-10.143	
574.200	-15.301	
574.300	-39.989	
574.400	-15.276	
574.500	-12.768	
574.600	-13.888	
574.700	-17.670	
574.800	-15.029	
574.900	-17.047	
575.000	-20.668	
575.100	-5.489	
575.200	-10.688	
575.300	-24.761	
575.400	-24.641	
575.500	-17.863	
575.600	-20.557	
575.700	-17.772	
575.800	-24.381	
575.900	-11.533	
576.000	-10.792	
576.100	-22.993	
576.200	-14.591	
576.300	-22.336	
576.400	-13.838	
576.500	-5.468	
576.600	-24.544	
576.700	-33.627	
576.800	-15.043	
576.900	-14.164	
577.000	-17.855	
577.100	-15.121	
577.200	-3.138	
577.300	-25.092	
577.400	-21.228	
577.500	-34.116	
577.600	-21.604	
577.700	-35.062	
577.800	-19.183	
577.900	-22.872	
578.000	-8.449	
578.100	-14.077	
578.200	-32.430	
578.300	-10.308	
578.400	-9.841	
578.500	-32.249	
578.600	-25.715	
578.700	-17.676	
578.800	-5.410	
578.900	-14.070	
579.000	-39.938	
579.100	-14.989	
579.200	-26.248	
579.300	-26.919	
579.400	-20.497	
579.500	-18.790	
579.600	-26.092	
579.700	-35.460	
579.800	-22.951	
579.900	-31.636	
580.000	-1.749	
580.100	-33.239	
580.200	-24.917	
580.300	-20.968	
580.400	-32.454	
580.500	-23.376	
580.600	-14.013	
580.700	-33.421	
580.800	-17.895	
580.900	-18.577	
581.000	-25.179	
581.100	-9.015	
581.200	-38.496	
581.300	-9.206	
581.400	-23.755	
581.500	-17.913	
581.600	-17.632	
581.700	-15.698	
581.800	-27.914	
581.900	-19.176	
582.000	-15.216	
582.100	-15.371	
582.200	-18.857	
582.300	-9.175	
582.400	-10.356	
582.500	-25.692	
582.600	-10.186	
582.700	-16.735	
582.800	-19.793	
582.900	-21.762	
583.000	-30.553	
583.100	-18.570	
583.200	-15.511	
583.300	-15.472	
583.400	-18.048	
583.500	-22.646	
583.600	-19.378	
583.700	-17.730	
583.800	-35.669	
583.900	-26.528	
584.000	-14.811	
584.100	-24.574	
584.200	-8.732	
584.300	-9.845	
584.400	-24.128	
584.500	-27.820	
584.600	-26.116	
584.700	-24.600	
584.800	-16.802	
584.900	-18.385	
585.000	-11.012	
585.100	-22.325	
585.200	-19.177	
585.300	-23.543	
585.400	-13.394	
585.500	-39.613	
585.600	-15.445	
585.700	-20.515	
585.800	-18.053	
585.900	-15.893	
586.000	-11.275	
586.100	-25.407	
586.200	-19.854	
586.300	-14.646	
586.400	-28.011	
586.500	-12.894	
586.600	-13.838	
586.700	-36.197	
586.800	-13.390	
586.900	-23.810	
587.000	-3.908	
587.100	-24.764	
587.200	-20.765	
587.300	-26.779	
587.400	-14.758	
587.500	-22.266	
587.600	-10.597	
587.700	-19.664	
587.800	-22.221	
587.900	-15.129	
588.000	-19.035	
588.100	-24.520	
588.200	-28.791	
588.300	-23.786	
588.400	1.420	
588.500	-20.581	
588.600	-17.847	
588.700	-5.906	
588.800	-15.151	
588.900	-26.129	
589.000	-25.520	
589.100	-15.231	
589.200	-12.607	
589.300	-25.404	
589.400	-12.680	
589.500	-29.261	
589.600	-12.070	
589.700	-16.333	
589.800	-25.320	
589.900	-12.263	
590.000	-23.628	
590.100	-27.549	
590.200	-32.580	
590.300	-23.216	
590.400	-33.585	
590.500	-8.261	
590.600	-10.031	
590.700	-35.958	
590.800	-18.321	
590.900	-25.413	
591.000	-13.168	
591.100	-11.550	
591.200	-14.036	
591.300	-27.860	
591.400	-20.622	
591.500	-14.792	
591.600	-21.562	
591.700	-21.054	
591.800	-25.856	
591.900	-14.980	
592.000	-16.707	
592.100	-10.154	
592.200	-22.359	
592.300	-15.504	
592.400	-19.227	
592.500	-27.915	
592.600	-15.006	
592.700	-20.935	
592.800	-35.321	
592.900	-18.698	
593.000	-18.962	
593.100	-26.348	
593.200	-15.353	
593.300	-8.217	
593.400	-18.295	
593.500	-20.823	
593.600	-14.350	
593.700	-24.894	
593.800	-23.203	
593.900	-20.481	
594.000	-19.536	
594.100	-25.530	
594.200	-18.385	
594.300	-14.674	
594.400	-22.799	
594.500	-13.744	
594.600	-22.975	
594.700	-4.248	
594.800	-17.527	
594.900	-35.626	
595.000	-10.390	
595.100	-18.201	
595.200	-27.190	
595.300	-15.886	
595.400	-13.815	
595.500	-8.450	
595.600	-27.787	
595.700	-17.175	
595.800	-18.124	
595.900	-32.333	
596.000	4.567	
596.100	-17.583	
596.200	-12.805	
596.300	-16.841	
596.400	-30.533	
596.500	-20.012	
596.600	-9.490	
596.700	-28.771	
596.800	-10.186	
596.900	-20.864	
597.000	-31.676	
597.100	-28.542	
597.200	-28.457	
597.300	-20.013	
597.400	-7.119	
597.500	-13.069	
597.600	-16.589	
597.700	-18.300	
597.800	-8.089	
597.900	-19.746	
598.000	-13.708	
598.100	-13.006	
598.200	-10.243	
598.300	-17.101	
598.400	-20.708	
598.500	-31.117	
598.600	-12.834	
598.700	-24.260	
598.800	-2.952	
598.900	-19.515	
599.000	-11.873	
599.100	-11.390	
599.200	-27.733	
599.300	-10.799	
599.400	-10.320	
599.500	-10.838	
599.600	-15.797	
599.700	-14.731	
599.800	-20.854	
599.900	-17.100	
600.000	-18.017	
600.100	-23.220	
600.200	-3.825	
600.300	-21.614	
600.400	-12.356	
600.500	-26.526	
600.600	-20.445	
600.700	-20.589	
600.800	-18.561	
600.900	-11.871	
601.000	-6.208	
601.100	-24.722	
601.200	-17.286	
601.300	-20.247	
601.400	-21.785	
601.500	-23.493	
601.600	-8.884	
601.700	-18.582	
601.800	-15.248	
601.900	-6.430	
602.000	-10.589	
602.100	-21.134	
602.200	-8.232	
602.300	-4.158	
602.400	-16.160	
602.500	-11.337	
602.600	-13.690	
602.700	-27.349	
602.800	-9.463	
602.900	-19.273	
603.000	-1.083	
603.100	-15.462	
603.200	-28.518	
603.300	-17.018	
603.400	-16.536	
603.500	-12.840	
603.600	-24.704	
603.700	-2.765	
603.800	-9.337	
603.900	-18.523	
604.000	-22.707	
604.100	-11.933	
604.200	-14.532	
604.300	-7.533	
604.400	-20.536	
604.500	-23.639	
604.600	-20.342	
604.700	-21.761	
604.800	-16.304	
604.900	-4.339	
605.000	-10.987	
605.100	-22.436	
605.200	-17.846	
605.300	-7.501	
605.400	-25.712	
605.500	-14.017	
605.600	-2.912	
605.700	2.118	
605.800	-10.836	
605.900	-14.183	
606.000	-3.485	
606.100	-13.594	
606.200	-23.024	
606.300	-21.881	
606.400	-15.061	
606.500	-10.037	
606.600	-12.155	
606.700	-17.147	
606.800	-16.407	
606.900	-17.263	
607.000	-12.558	
607.100	-22.275	
607.200	-15.638	
607.300	-13.312	
607.400	-30.555	
607.500	-17.292	
607.600	-5.570	
607.700	-18.624	
607.800	-16.195	
607.900	-6.000	
608.000	-13.852	
608.100	-13.764	
608.200	-18.846	
608.300	-13.868	
608.400	-13.867	
608.500	-7.455	
608.600	-22.316	
608.700	-12.640	
608.800	-10.353	
608.900	-20.344	
609.000	-10.775	
609.100	-20.333	
609.200	-9.011	
609.300	-13.956	
609.400	-7.345	
609.500	-12.722	
609.600	-12.740	
609.700	-20.678	
609.800	-6.937	
609.900	-13.876	
610.000	-10.783	
610.100	-31.719	
610.200	-10.104	
610.300	-10.287	
610.400	-19.546	
610.500	-11.341	
610.600	-4.826	
610.700	-11.979	
610.800	-25.394	
610.900	0.942	
611.000	-10.811	
611.100	-13.611	
611.200	-28.837	
611.300	-9.292	
611.400	-34.006	
611.500	-13.780	
611.600	-15.742	
611.700	-0.850	
611.800	-19.740	
611.900	-29.523	
612.000	-11.776	
612.100	-20.015	
612.200	-3.373	
612.300	-0.447	
612.400	-21.228	
612.500	-14.425	
612.600	-20.646	
612.700	-27.589	
612.800	1.687	
612.900	-17.549	
613.000	-10.522	
613.100	-23.322	
613.200	1.905	
613.300	-11.148	
613.400	-8.115	
613.500	-14.438	
613.600	-25.993	
613.700	-16.146	
613.800	-7.935	
613.900	-17.964	
614.000	-24.865	
614.100	-14.755	
614.200	-8.626	
614.300	-15.459	
614.400	-26.542	
614.500	-2.186	
614.600	-20.089	
614.700	-7.317	
614.800	-17.652	
614.900	-16.132	
615.000	-22.102	
615.100	-15.352	
615.200	-10.462	
615.300	-14.207	
615.400	-13.299	
615.500	-3.013	
615.600	-26.368	
615.700	-24.130	
615.800	-8.422	
615.900	-16.158	
616.000	-25.259	
616.100	-19.102	
616.200	-21.892	
616.300	-10.748	
616.400	-25.980	
616.500	5.110	
616.600	-27.673	
616.700	-18.108	
616.800	-9.810	
616.900	-16.116	
617.000	-21.198	
617.100	-16.558	
617.200	-3.129	
617.300	-20.945	
617.400	-3.979	
617.500	-8.458	
617.600	-19.107	
617.700	-10.014	
617.800	-12.544	
617.900	-14.888	
618.000	-24.181	
618.100	-13.502	
618.200	-12.135	
618.300	-4.824	
618.400	-11.400	
618.500	-18.833	
618.600	-15.742	
618.700	-27.320	
618.800	-3.527	
618.900	3.102	
619.000	-9.284	
619.100	-29.566	
619.200	-0.592	
619.300	-29.324	
619.400	-6.907	
619.500	-26.109	
619.600	-9.108	
619.700	-13.427	
619.800	-4.613	
619.900	-14.963	
620.000	-16.224	
620.100	-12.282	
620.200	-32.261	
620.300	1.001	
620.400	-6.844	
620.500	-7.250	
620.600	-30.782	
620.700	-11.929	
620.800	-10.315	
620.900	-21.762	
621.000	-2.510	
621.100	-12.087	
621.200	-14.601	
621.300	-15.844	
621.400	-11.944	
621.500	-22.366	
621.600	-9.320	
621.700	-23.218	
621.800	-7.741	
621.900	-16.919	
622.000	-16.899	
622.100	-15.775	
622.200	-8.529	
622.300	-4.583	
622.400	-2.156	
622.500	-11.852	
622.600	-5.465	
622.700	-7.235	
622.800	-17.719	
622.900	-23.658	
623.000	-6.081	
623.100	-17.284	
623.200	-6.835	
623.300	-10.626	
623.400	-4.246	
623.500	-11.780	
623.600	-24.750	
623.700	-18.254	
623.800	-10.218	
623.900	-15.182	
624.000	-3.204	
624.100	-2.332	
624.200	-9.238	
624.300	-12.202	
624.400	-13.811	
624.500	-13.708	
624.600	-6.250	
624.700	-2.931	
624.800	-19.240	
624.900	-21.806	
625.000	1.856	
625.100	-1.524	
625.200	-11.650	
625.300	-19.252	
625.400	-7.051	
625.500	-10.076	
625.600	-13.134	
625.700	-6.235	
625.800	-17.252	
625.900	-11.457	
626.000	-22.576	
626.100	-7.911	
626.200	-4.224	
626.300	-10.310	
626.400	-14.389	
626.500	-15.412	
626.600	-16.020	
626.700	-6.185	
626.800	-11.381	
626.900	-3.416	
627.000	-18.634	
627.100	3.118	
627.200	-26.847	
627.300	-6.131	
627.400	-8.341	
627.500	-23.615	
627.600	-25.755	
627.700	-22.206	
627.800	-7.028	
627.900	-18.630	
628.000	-1.108	
628.100	-8.782	
628.200	-24.238	
628.300	-10.997	
628.400	-5.964	
628.500	-5.807	
628.600	0.186	
628.700	-8.209	
628.800	-9.510	
628.900	-25.127	
629.000	-10.377	
629.100	-11.178	
629.200	-9.167	
629.300	-21.845	
629.400	-8.847	
629.500	1.452	
629.600	-1.952	
629.700	-15.900	
629.800	-17.893	
629.900	-13.443	
630.000	-12.062	
630.100	-15.105	
630.200	-2.980	
630.300	-11.475	
630.400	15.728	
630.500	-0.772	
630.600	0.131	
630.700	11.840	
630.800	9.888	
630.900	-0.466	
631.000	7.040	
631.100	15.465	
631.200	27.776	
631.300	14.692	
631.400	12.551	
631.500	10.331	
631.600	24.360	
631.700	18.735	
631.800	15.421	
631.900	15.688	
632.000	15.596	
632.100	16.548	
632.200	16.978	
632.300	19.788	
632.400	21.245	
632.500	13.438	
632.600	6.344	
632.700	27.422	
632.800	24.845	
632.900	10.055	
633.000	10.379	
633.100	16.264	
633.200	13.338	
633.300	12.841	
633.400	32.826	
633.500	15.726	
633.600	24.996	
633.700	20.014	
633.800	30.036	
633.900	11.848	
634.000	21.578	
634.100	19.362	
634.200	21.494	
634.300	34.060	
634.400	3.945	
634.500	19.969	
634.600	15.349	
634.700	26.697	
634.800	24.273	
634.900	22.220	
635.000	12.922	
635.100	21.283	
635.200	14.979	
635.300	22.884	
635.400	16.591	
635.500	-2.305	
635.600	12.078	
635.700	46.143	
635.800	4.677	
635.900	28.702	
636.000	19.886	
636.100	7.116	
636.200	34.583	
636.300	23.740	
636.400	31.681	
636.500	15.919	
636.600	27.847	
636.700	11.242	
636.800	25.501	
636.900	2.533	
637.000	22.793	
637.100	7.221	
637.200	19.435	
637.300	11.225	
637.400	9.456	
637.500	20.725	
637.600	8.996	
637.700	17.173	
637.800	14.541	
637.900	21.161	
638.000	25.875	
638.100	17.485	
638.200	17.612	
638.300	18.528	
638.400	21.439	
638.500	5.026	
638.600	4.572	
638.700	26.120	
638.800	17.559	
638.900	9.486	
639.000	43.938	
639.100	4.352	
639.200	28.599	
639.300	11.128	
639.400	14.653	
639.500	11.098	
639.600	15.789	
639.700	28.849	
639.800	22.445	
639.900	25.295	
640.000	18.822	
640.100	17.721	
640.200	9.489	
640.300	22.959	
640.400	19.453	
640.500	19.504	
640.600	27.244	
640.700	23.091	
640.800	17.096	
640.900	18.940	
641.000	29.333	
641.100	23.776	
641.200	15.064	
641.300	40.426	
641.400	23.774	
641.500	19.064	
641.600	18.058	
641.700	22.920	
641.800	19.194	
641.900	27.819	
642.000	37.558	
642.100	26.131	
642.200	33.217	
642.300	38.344	
642.400	21.769	
642.500	26.059	
642.600	27.342	
642.700	29.233	
642.800	26.583	
642.900	26.762	
643.000	18.913	
643.100	25.996	
643.200	30.711	
643.300	21.969	
643.400	36.379	
643.500	35.232	
643.600	30.817	
643.700	42.495	
643.800	33.300	
643.900	35.341	
644.000	26.097	
644.100	32.401	
644.200	33.242	
644.300	35.576	
644.400	30.422	
644.500	43.410	
644.600	46.180	
644.700	26.620	
644.800	30.852	
644.900	36.494	
645.000	27.102	
645.100	51.833	
645.200	42.852	
645.300	34.084	
645.400	32.378	
645.500	42.929	
645.600	31.756	
645.700	31.370	
645.800	39.644	
645.900	45.971	
646.000	32.646	
646.100	45.256	
646.200	43.022	
646.300	28.887	
646.400	44.901	
646.500	41.528	
646.600	36.927	
646.700	37.978	
646.800	48.998	
646.900	21.427	
647.000	50.461	
647.100	57.490	
647.200	47.877	
647.300	24.696	
647.400	56.789	
647.500	50.315	
647.600	37.603	
647.700	40.240	
647.800	30.651	
647.900	47.370	
648.000	27.360	
648.100	45.619	
648.200	52.750	
648.300	57.825	
648.400	54.606	
648.500	23.040	
648.600	36.066	
648.700	45.153	
648.800	50.835	
648.900	45.448	
649.000	43.248	
649.100	41.288	
649.200	42.433	
649.300	44.344	
649.400	48.913	
649.500	37.054	
649.600	46.444	
649.700	48.642	
649.800	49.265	
649.900	42.169	
650.000	36.118	
650.100	30.427	
650.200	50.730	
650.300	47.992	
650.400	53.237	
650.500	40.691	
650.600	46.484	
650.700	39.650	
650.800	55.901	
650.900	45.210	
651.000	45.935	
651.100	43.458	
651.200	35.227	
651.300	49.202	
651.400	35.790	
651.500	34.603	
651.600	54.446	
651.700	42.362	
651.800	31.258	
651.900	46.794	
652.000	42.902	
652.100	52.036	
652.200	39.570	
652.300	38.365	
652.400	59.151	
652.500	47.850	
652.600	42.561	
652.700	30.733	
652.800	23.227	
652.900	41.838	
653.000	52.687	
653.100	49.564	
653.200	34.664	
653.300	44.286	
653.400	60.788	
653.500	56.453	
653.600	39.173	
653.700	44.490	
653.800	34.173	
653.900	38.400	
654.000	44.313	
654.100	60.384	
654.200	32.761	
654.300	47.858	
654.400	53.050	
654.500	46.333	
654.600	29.592	
654.700	70.635	
654.800	40.840	
654.900	26.360	
655.000	62.453	
655.100	40.692	
655.200	50.514	
655.300	52.446	
655.400	45.114	
655.500	49.997	
655.600	43.494	
655.700	56.629	
655.800	37.631	
655.900	53.047	
656.000	45.000	
656.100	53.036	
656.200	46.615	
656.300	53.296	
656.400	60.382	
656.500	45.982	
656.600	52.101	
656.700	31.361	
656.800	58.178	
656.900	47.302	
657.000	42.590	
657.100	39.103	
657.200	38.608	
657.300	56.748	
657.400	39.326	
657.500	47.089	
657.600	49.222	
657.700	43.605	
657.800	53.225	
657.900	45.085	
658.000	52.321	
658.100	39.260	
658.200	61.906	
658.300	47.347	
658.400	41.696	
658.500	45.082	
658.600	34.125	
658.700	42.801	
658.800	39.924	
658.900	55.506	
659.000	52.813	
659.100	46.304	
659.200	45.640	
659.300	49.065	
659.400	32.120	
659.500	56.977	
659.600	52.781	
659.700	44.600	
659.800	35.340	
659.900	50.463	
660.000	48.124	
660.100	54.239	
660.200	37.571	
660.300	37.078	
660.400	40.961	
660.500	45.484	
660.600	42.430	
660.700	59.151	
660.800	40.750	
660.900	42.535	
661.000	46.882	
661.100	49.852	
661.200	43.956	
661.300	52.556	
661.400	38.826	
661.500	42.568	
661.600	47.060	
661.700	44.645	
661.800	44.068	
661.900	51.856	
662.000	44.150	
662.100	40.926	
662.200	38.180	
662.300	38.968	
662.400	45.028	
662.500	42.565	
662.600	43.049	
662.700	46.928	
662.800	41.079	
662.900	41.036	
663.000	50.702	
663.100	57.905	
663.200	44.021	
663.300	44.145	
663.400	39.614	
663.500	45.616	
663.600	51.041	
663.700	41.413	
663.800	48.654	
663.900	44.723	
664.000	43.109	
664.100	49.533	
664.200	47.117	
664.300	57.719	
664.400	49.544	
664.500	38.115	
664.600	47.135	
664.700	45.004	
664.800	33.252	
664.900	35.711	
665.000	51.991	
665.100	52.641	
665.200	42.133	
665.300	58.590	
665.400	42.531	
665.500	46.490	
665.600	44.463	
665.700	42.770	
665.800	61.161	
665.900	33.587	
666.000	50.232	
666.100	53.231	
666.200	48.918	
666.300	59.705	
666.400	42.812	
666.500	37.924	
666.600	56.984	
666.700	57.901	
666.800	37.788	
666.900	36.903	
667.000	47.387	
667.100	41.952	
667.200	40.559	
667.300	61.669	
667.400	39.797	
667.500	37.936	
667.600	42.840	
667.700	45.943	
667.800	31.041	
667.900	45.855	
668.000	60.014	
668.100	44.594	
668.200	41.221	
668.300	54.526	
668.400	40.395	
668.500	45.007	
668.600	27.795	
668.700	61.485	
668.800	56.373	
668.900	29.828	
669.000	48.478	
669.100	51.723	
669.200	47.022	
669.300	49.204	
669.400	46.979	
669.500	55.537	
669.600	45.142	
669.700	43.493	
669.800	22.309	
669.900	49.523	
670.000	44.206	
670.100	44.180	
670.200	38.522	
670.300	48.381	
670.400	44.215	
670.500	52.289	
670.600	35.061	
670.700	55.066	
670.800	39.349	
670.900	60.090	
671.000	52.440	
671.100	32.821	
671.200	56.244	
671.300	44.649	
671.400	39.542	
671.500	48.536	
671.600	49.171	
671.700	32.749	
671.800	40.689	
671.900	38.471	
672.000	44.748	
672.100	34.724	
672.200	51.910	
672.300	54.038	
672.400	52.935	
672.500	42.059	
672.600	46.630	
672.700	43.378	
672.800	37.367	
672.900	49.793	
673.000	47.700	
673.100	32.422	
673.200	56.322	
673.300	37.742	
673.400	51.115	
673.500	47.347	
673.600	38.932	
673.700	50.166	
673.800	39.558	
673.900	40.776	
674.000	39.533	
674.100	29.129	
674.200	55.613	
674.300	38.353	
674.400	41.315	
674.500	61.174	
674.600	31.215	
674.700	34.661	
674.800	54.649	
674.900	42.693	
675.000	54.863	
675.100	55.546	
675.200	31.758	
675.300	42.212	
675.400	36.971	
675.500	44.225	
675.600	25.151	
675.700	49.878	
675.800	45.191	
675.900	46.295	
676.000	39.489	
676.100	47.943	
676.200	35.370	
676.300	41.290	
676.400	41.025	
676.500	48.678	
676.600	27.536	
676.700	40.789	
676.800	54.683	
676.900	24.224	
677.000	54.105	
677.100	41.205	
677.200	33.742	
677.300	58.593	
677.400	39.636	
677.500	48.239	
677.600	37.185	
677.700	35.700	
677.800	47.960	
677.900	28.392	
678.000	48.730	
678.100	48.634	
678.200	39.487	
678.300	52.717	
678.400	43.205	
678.500	40.955	
678.600	40.743	
678.700	40.698	
678.800	44.613	
678.900	30.317	
679.000	44.559	
679.100	36.667	
679.200	36.900	
679.300	40.318	
679.400	38.661	
679.500	34.738	
679.600	50.092	
679.700	39.537	
679.800	47.924	
679.900	41.910	
680.000	38.998	
680.100	48.069	
680.200	38.700	
680.300	43.867	
680.400	47.946	
680.500	45.230	
680.600	52.027	
680.700	40.588	
680.800	43.545	
680.900	47.727	
681.000	36.035	
681.100	38.525	
681.200	42.378	
681.300	35.155	
681.400	45.012	
681.500	43.238	
681.600	46.685	
681.700	26.618	
681.800	48.573	
681.900	55.719	
682.000	47.355	
682.100	37.336	
682.200	35.045	
682.300	29.066	
682.400	37.096	
682.500	39.901	
682.600	43.521	
682.700	59.551	
682.800	37.377	
682.900	40.249	
683.000	35.432	
683.100	46.590	
683.200	41.564	
683.300	27.618	
683.400	44.774	
683.500	43.654	
683.600	38.237	
683.700	55.026	
683.800	45.503	
683.900	35.224	
684.000	27.354	
684.100	48.835	
684.200	34.344	
684.300	43.317	
684.400	47.684	
684.500	43.073	
684.600	44.772	
684.700	35.800	
684.800	21.496	
684.900	33.616	
685.000	45.403	
685.100	45.849	
685.200	44.273	
685.300	44.687	
685.400	32.700	
685.500	42.107	
685.600	46.856	
685.700	49.369	
685.800	40.306	
685.900	32.764	
686.000	37.811	
686.100	37.156	
686.200	36.580	
686.300	42.755	
686.400	44.881	
686.500	25.972	
686.600	39.260	
686.700	44.064	
686.800	55.394	
686.900	27.216	
687.000	43.977	
687.100	47.201	
687.200	42.551	
687.300	33.755	
687.400	50.078	
687.500	32.241	
687.600	45.738	
687.700	39.966	
687.800	47.449	
687.900	31.534	
688.000	34.348	
688.100	38.550	
688.200	43.310	
688.300	44.295	
688.400	48.434	
688.500	36.044	
688.600	37.660	
688.700	54.893	
688.800	35.982	
688.900	42.584	
689.000	45.615	
689.100	37.088	
689.200	41.908	
689.300	49.624	
689.400	49.626	
689.500	28.419	
689.600	44.483	
689.700	33.154	
689.800	34.781	
689.900	34.365	
690.000	32.627	
690.100	40.011	
690.200	38.282	
690.300	36.878	
690.400	28.895	
690.500	50.559	
690.600	21.123	
690.700	24.266	
690.800	32.056	
690.900	19.901	
691.000	10.450	
691.100	21.904	
691.200	19.878	
691.300	6.789	
691.400	14.471	
691.500	18.790	
691.600	13.566	
691.700	7.325	
691.800	14.579	
691.900	29.542	
692.000	-0.182	
692.100	9.326	
692.200	22.670	
692.300	7.272	
692.400	6.632	
692.500	11.006	
692.600	14.835	
692.700	0.632	
692.800	-12.699	
692.900	3.092	
693.000	15.864	
693.100	11.614	
693.200	7.907	
693.300	-3.924	
693.400	-6.625	
693.500	0.577	
693.600	-4.665	
693.700	9.948	
693.800	-16.200	
693.900	6.149	
694.000	14.607	
694.100	-11.169	
694.200	-15.939	
694.300	-8.468	
694.400	6.850	
694.500	-10.939	
694.600	-5.093	
694.700	-10.280	
694.800	-10.226	
694.900	-14.576	
695.000	-8.560	
695.100	-17.652	
695.200	-7.601	
695.300	1.944	
695.400	-3.346	
695.500	-11.822	
695.600	-16.635	
695.700	-38.893	
695.800	-13.667	
695.900	-24.131	
696.000	-6.209	
696.100	-22.136	
696.200	-22.677	
696.300	-17.127	
696.400	-20.445	
696.500	-7.280	
696.600	-15.667	
696.700	-1.824	
696.800	-26.620	
696.900	-10.062	
697.000	-2.691	
697.100	-10.424	
697.200	-23.359	
697.300	-21.489	
697.400	-9.712	
697.500	-1.551	
697.600	-27.091	
697.700	-18.093	
697.800	-9.648	
697.900	-8.837	
698.000	-30.278	
698.100	-24.221	
698.200	-23.886	
698.300	-22.415	
698.400	-22.256	
698.500	-27.543	
698.600	-16.435	
698.700	-28.786	
698.800	-3.602	
698.900	-7.516	
699.000	-16.995	
699.100	-5.609	
699.200	-12.475	
699.300	0.092	
699.400	-13.540	
699.500	-14.882	
699.600	-18.855	
699.700	-10.099	
699.800	-6.870	
699.900	-31.929	
700.000	-12.481	
700.100	-21.600	
700.200	-23.937	
700.300	-11.599	
700.400	-8.773	
700.500	-5.197	
700.600	-5.695	
700.700	-5.025	
700.800	-13.047	
700.900	-19.207	
701.000	-19.954	
701.100	-16.384	
701.200	-21.401	
701.300	4.009	
701.400	-0.188	
701.500	-19.889	
701.600	-15.973	
701.700	4.664	
701.800	-17.119	
701.900	-23.927	
702.000	-12.106	
702.100	9.290	
702.200	-22.671	
702.300	-7.042	
702.400	-1.651	
702.500	-17.841	
702.600	-10.951	
702.700	-8.758	
702.800	-14.789	
702.900	-7.560	
703.000	-8.538	
703.100	-21.912	
703.200	8.144	
703.300	-19.468	
703.400	-11.504	
703.500	-11.566	
703.600	-15.399	
703.700	-2.289	
703.800	-13.053	
703.900	-26.892	
704.000	-4.209	
704.100	-6.975	
704.200	-4.682	
704.300	-20.046	
704.400	-29.966	
704.500	-2.729	
704.600	-13.893	
704.700	-16.568	
704.800	-17.601	
704.900	-14.511	
705.000	-3.389	
705.100	-22.554	
705.200	-9.900	
705.300	-4.489	
705.400	-15.705	
705.500	-19.383	
705.600	-13.514	
705.700	-14.283	
705.800	2.818	
705.900	-14.040	
706.000	-17.952	
706.100	-16.657	
706.200	0.055	
706.300	3.523	
706.400	-18.003	
706.500	-14.728	
706.600	-20.958	
706.700	-2.083	
706.800	-3.621	
706.900	-18.195	
707.000	-12.411	
707.100	-12.590	
707.200	-16.996	
707.300	0.147	
707.400	-15.747	
707.500	-9.152	
707.600	-10.474	
707.700	-5.255	
707.800	-17.279	
707.900	-10.599	
708.000	-23.201	
708.100	-22.960	
708.200	-14.780	
708.300	0.011	
708.400	-4.727	
708.500	-1.866	
708.600	-1.197	
708.700	-6.928	
708.800	-21.803	
708.900	-3.500	
709.000	-19.669	
709.100	-14.282	
709.200	-12.477	
709.300	-12.478	
709.400	-18.101	
709.500	-15.553	
709.600	-18.476	
709.700	-20.421	
709.800	-17.944	
709.900	-18.531	
710.000	-5.301	
710.100	-4.414	
710.200	-14.645	
710.300	-0.691	
710.400	-13.828	
710.500	-30.737	
710.600	-10.449	
710.700	-15.846	
710.800	-14.305	
710.900	-20.496	
711.000	-8.167	
711.100	-8.540	
711.200	-8.029	
711.300	-11.760	
711.400	-27.640	
711.500	-17.621	
711.600	-14.424	
711.700	-19.803	
711.800	-7.258	
711.900	4.131	
712.000	-25.391	
712.100	-36.025	
712.200	-10.652	
712.300	-13.053	
712.400	-25.755	
712.500	-23.454	
712.600	-5.849	
712.700	-19.341	
712.800	-2.671	
712.900	-15.631	
713.000	-15.036	
713.100	-11.623	
713.200	-14.397	
713.300	3.606	
713.400	-20.290	
713.500	-3.652	
713.600	-17.725	
713.700	-12.688	
713.800	-9.618	
713.900	-9.385	
714.000	-14.711	
714.100	-15.650	
714.200	-3.489	
714.300	-14.984	
714.400	-10.761	
714.500	-16.142	
714.600	-21.730	
714.700	-8.496	
714.800	-28.710	
714.900	-21.561	
715.000	-2.915	
715.100	-22.513	
715.200	-16.731	
715.300	-10.821	
715.400	-12.373	
715.500	-21.290	
715.600	-24.569	
715.700	-21.865	
715.800	-26.652	
715.900	-14.869	
716.000	-23.005	
716.100	-29.444	
716.200	-8.590	
716.300	-13.194	
716.400	-25.820	
716.500	-22.904	
716.600	-13.841	
716.700	-5.679	
716.800	-26.247	
716.900	-20.964	
717.000	-11.611	
717.100	-18.644	
717.200	-13.087	
717.300	-15.977	
717.400	-27.309	
717.500	-22.456	
717.600	-14.709	
717.700	-14.013	
717.800	-15.711	
717.900	-26.098	
718.000	-14.429	
718.100	-27.808	
718.200	-21.707	
718.300	-17.700	
718.400	-3.627	
718.500	-23.079	
718.600	-18.808	
718.700	-12.026	
718.800	-25.846	
718.900	-21.242	
719.000	-12.333	
719.100	-16.423	
719.200	-25.276	
719.300	-11.970	
719.400	-14.917	
719.500	-11.527	
719.600	-13.552	
719.700	-6.726	
719.800	-15.522	
719.900	-9.017	
720.000	-31.810	
720.100	-22.925	
720.200	-22.873	
720.300	-31.553	
720.400	-10.248	
720.500	-6.408	
720.600	-5.470	
720.700	-35.564	
720.800	-5.298	
720.900	-19.087	
721.000	-13.509	
721.100	-21.472	
721.200	-17.796	
721.300	-18.588	
721.400	-30.522	
721.500	-22.452	
721.600	-18.064	
721.700	-18.721	
721.800	-27.160	
721.900	-12.652	
722.000	-32.057	
722.100	-17.402	
722.200	-15.126	
722.300	-30.606	
722.400	2.739	
722.500	-16.711	
722.600	-12.631	
722.700	-44.060	
722.800	-21.545	
722.900	-23.690	
723.000	-9.541	
723.100	-7.687	
723.200	-20.616	
723.300	-31.256	
723.400	-10.502	
723.500	-11.843	
723.600	-38.268	
723.700	-27.431	
723.800	-23.365	
723.900	-20.612	
724.000	-19.274	
724.100	-24.803	
724.200	-35.745	
724.300	-8.679	
724.400	-3.302	
724.500	-19.099	
724.600	-21.988	
724.700	-35.783	
724.800	-3.186	
724.900	-13.464	
725.000	-23.231	
725.100	-11.068	
725.200	-24.021	
725.300	-25.328	
725.400	-23.190	
725.500	-12.297	
725.600	-29.176	
725.700	-14.805	
725.800	-19.654	
725.900	-40.046	
726.000	-8.897	
726.100	-9.374	
726.200	-22.719	
726.300	-28.266	
726.400	-29.872	
726.500	-1.034	
726.600	-24.678	
726.700	-32.095	
726.800	-22.555	
726.900	-14.352	
727.000	-22.399	
727.100	-19.274	
727.200	-37.874	
727.300	-5.139	
727.400	-21.340	
727.500	-11.124	
727.600	-12.070	
727.700	-28.109	
727.800	-20.182	
727.900	-20.161	
728.000	-23.941	
728.100	-16.834	
728.200	-7.597	
728.300	-28.602	
728.400	-15.837	
728.500	-18.258	
728.600	-31.100	
728.700	-21.168	
728.800	-18.901	
728.900	-14.984	
729.000	-26.490	
729.100	-19.242	
729.200	-22.762	
729.300	-18.947	
729.400	-26.482	
729.500	-16.590	
729.600	-30.888	
729.700	-23.482	
729.800	-19.903	
729.900	-26.762	
730.000	-24.487	
730.100	-37.891	
730.200	-18.981	
730.300	-26.768	
730.400	-7.357	
730.500	-25.103	
730.600	-29.063	
730.700	-11.248	
730.800	-19.100	
730.900	-18.210	
731.000	-39.611	
731.100	-16.059	
731.200	-15.029	
731.300	-12.385	
731.400	-14.810	
731.500	-23.656	
731.600	-19.637	
731.700	-14.939	
731.800	-27.137	
731.900	-20.822	
732.000	-22.876	
732.100	-25.042	
732.200	-20.569	
732.300	-26.283	
732.400	-18.821	
732.500	-17.618	
732.600	-13.533	
732.700	-30.381	
732.800	-11.711	
732.900	-24.316	
733.000	-14.925	
733.100	-32.961	
733.200	-3.852	
733.300	-20.389	
733.400	-32.027	
733.500	-37.449	
733.600	-5.249	
733.700	-14.809	
733.800	-16.244	
733.900	-23.335	
734.000	-15.898	
734.100	-27.247	
734.200	-20.263	
734.300	-12.540	
734.400	-10.242	
734.500	-17.684	
734.600	-22.725	
734.700	-22.570	
734.800	-24.315	
734.900	-29.769	
735.000	-34.991	
735.100	-14.996	
735.200	-24.413	
735.300	-30.490	
735.400	-15.329	
735.500	-22.070	
735.600	-10.352	
735.700	-35.274	
735.800	-27.263	
735.900	-19.541	
736.000	-14.117	
736.100	-22.177	
736.200	-45.527	
736.300	-16.548	
736.400	-14.140	
736.500	-17.433	
736.600	-17.416	
736.700	-17.818	
736.800	-29.371	
736.900	-19.909	
737.000	-22.870	
737.100	-22.219	
737.200	-9.950	
737.300	-19.835	
737.400	-30.430	
737.500	-27.355	
737.600	-25.048	
737.700	-21.555	
737.800	-18.528	
737.900	-28.251	
738.000	-27.122	
738.100	5.093	
738.200	-14.924	
738.300	-17.245	
738.400	-23.000	
738.500	-25.604	
738.600	-20.998	
738.700	-17.330	
738.800	-32.141	
738.900	-7.248	
739.000	-20.168	
739.100	-10.781	
739.200	-11.156	
739.300	-26.340	
739.400	-9.995	
739.500	-13.858	
739.600	-17.819	
739.700	-26.761	
739.800	-15.831	
739.900	-16.900	
740.000	-13.104	
740.100	-17.854	
740.200	-18.168	
740.300	-20.450	
740.400	-23.026	
740.500	-32.041	
740.600	-10.444	
740.700	-9.177	
740.800	-10.645	
740.900	-24.939	
741.000	-18.568	
741.100	-3.865	
741.200	-25.238	
741.300	-35.432	
741.400	-17.174	
741.500	-23.666	
741.600	-24.865	
741.700	-13.304	
741.800	-15.685	
741.900	-26.033	
742.000	-24.975	
742.100	3.824	
742.200	-2.565	
742.300	-11.254	
742.400	-37.646	
742.500	-22.724	
742.600	-9.064	
742.700	-18.101	
742.800	-17.659	
742.900	-22.154	
743.000	-33.220	
743.100	-22.815	
743.200	-10.613	
743.300	-20.897	
743.400	-28.631	
743.500	-2.805	
743.600	-24.149	
743.700	-10.743	
743.800	-32.126	
743.900	-25.303	
744.000	-16.046	
744.100	-13.249	
744.200	-25.855	
744.300	-31.143	
744.400	-29.754	
744.500	-18.266	
744.600	-7.539	
744.700	-4.428	
744.800	-2.689	
744.900	-11.487	
745.000	-27.486	
745.100	-14.613	
745.200	-7.585	
745.300	-16.645	
745.400	-8.476	
745.500	-40.375	
745.600	-23.992	
745.700	-6.151	
745.800	-26.372	
745.900	-22.518	
746.000	-9.287	
746.100	-21.189	
746.200	-26.805	
746.300	-30.848	
746.400	-3.708	
746.500	-20.055	
746.600	-24.915	
746.700	-23.823	
746.800	-33.472	
746.900	-10.896	
747.000	-14.663	
747.100	-14.779	
747.200	-11.537	
747.300	-22.195	
747.400	-13.547	
747.500	-17.998	
747.600	-16.385	
747.700	-16.910	
747.800	-15.635	
747.900	-13.271	
748.000	-16.738	
748.100	-22.904	
748.200	-17.732	
748.300	-13.363	
748.400	-27.687	
748.500	-7.361	
748.600	-14.773	
748.700	-20.843	
748.800	-19.441	
748.900	-18.279	
749.000	-9.706	
749.100	-14.423	
749.200	-30.368	
749.300	-5.192	
749.400	-13.595	
749.500	-30.727	
749.600	-17.153	
749.700	-25.020	
749.800	-13.336	
749.900	-29.548	
750.000	-19.332	
750.100	-9.554	
750.200	-26.735	
750.300	-13.602	
750.400	-9.953	
750.500	-20.863	
750.600	-18.917	
750.700	-9.328	
750.800	-14.737	
750.900	-19.733	
751.000	-19.985	
751.100	-19.681	
751.200	-17.196	
751.300	-16.212	
751.400	-22.627	
751.500	-11.070	
751.600	-13.859	
751.700	-10.299	
751.800	-13.140	
751.900	-12.832	
752.000	-16.624	
752.100	-19.470	
752.200	-25.299	
752.300	-21.879	
752.400	-0.872	
752.500	-13.929	
752.600	-22.139	
752.700	-22.726	
752.800	-12.366	
752.900	-16.284	
753.000	-18.244	
753.100	-25.064	
753.200	2.646	
753.300	-9.968	
753.400	-11.606	
753.500	-21.150	
753.600	-18.197	
753.700	5.508	
753.800	-25.180	
753.900	-14.377	
754.000	-1.996	
754.100	-18.219	
754.200	-21.506	
754.300	-15.907	
754.400	-18.936	
754.500	-16.824	
754.600	-24.222	
754.700	-5.796	
754.800	-17.795	
754.900	-36.655	
755.000	-9.581	
755.100	-5.530	
755.200	-20.043	
755.300	5.735	
755.400	-30.052	
755.500	-34.167	
755.600	-15.617	
755.700	-23.209	
755.800	-2.274	
755.900	-21.983	
756.000	-11.348	
756.100	-25.281	
756.200	-12.822	
756.300	-8.966	
756.400	-26.044	
756.500	-1.695	
756.600	-20.166	
756.700	-12.585	
756.800	-8.510	
756.900	-19.022	
757.000	-18.374	
757.100	-12.710	
757.200	-12.305	
757.300	-21.852	
757.400	-10.797	
757.500	-15.779	
757.600	-8.936	
757.700	-10.193	
757.800	-5.544	
757.900	-22.593	
758.000	-7.190	
758.100	-11.139	
758.200	-23.129	
758.300	-25.063	
758.400	-11.512	
758.500	-16.117	
758.600	-19.530	
758.700	-11.284	
758.800	-26.067	
758.900	-4.121	
759.000	-21.707	
759.100	-8.947	
759.200	-10.381	
759.300	-7.499	
759.400	-24.200	
759.500	-5.709	
759.600	-6.297	
759.700	-15.372	
759.800	-13.854	
759.900	-24.082	
760.000	-7.044	
760.100	-18.256	
760.200	-11.139	
760.300	-14.235	
760.400	-15.436	
760.500	-33.506	
760.600	-6.481	
760.700	-7.319	
760.800	-5.826	
760.900	-11.752	
761.000	-9.022	
761.100	-11.901	
761.200	-13.197	
761.300	3.103	
761.400	-2.962	
761.500	-17.277	
761.600	-20.366	
761.700	-13.684	
761.800	-8.090	
761.900	-24.514	
762.000	-17.560	
762.100	-3.740	
762.200	-26.330	
762.300	-1.489	
762.400	-23.684	
762.500	-5.211	
762.600	-21.539	
762.700	-9.118	
762.800	-1.411	
762.900	-12.433	
763.000	-8.161	
763.100	-3.963	
763.200	0.577	
763.300	-15.538	
763.400	-32.548	
763.500	-7.692	
763.600	-6.550	
763.700	-15.787	
763.800	-0.703	
763.900	-27.023	
764.000	-14.590	
764.100	-9.768	
764.200	-16.945	
764.300	-18.687	
764.400	-1.992	
764.500	-4.322	
764.600	-19.705	
764.700	-19.271	
764.800	-15.371	
764.900	-30.619	
765.000	-12.378	
765.100	-13.761	
765.200	-6.509	
765.300	-5.040	
765.400	-13.231	
765.500	-26.060	
765.600	-5.638	
765.700	-19.114	
765.800	-12.708	
765.900	-14.479	
766.000	-17.366	
766.100	-18.631	
766.200	-21.313	
766.300	-14.051	
766.400	-5.941	
766.500	-15.847	
766.600	-11.752	
766.700	-5.638	
766.800	-19.272	
766.900	-18.894	
767.000	-4.489	
767.100	-12.117	
767.200	-16.873	
767.300	-10.289	
767.400	-21.052	
767.500	-15.235	
767.600	-6.713	
767.700	-13.335	
767.800	-2.020	
767.900	-16.101	
768.000	-20.974	
768.100	9.139	
768.200	-23.441	
768.300	-23.749	
768.400	-12.793	
768.500	-15.760	
768.600	-15.876	
768.700	-13.725	
768.800	-8.203	
768.900	-21.317	
769.000	-13.993	
769.100	-10.012	
769.200	-4.622	
769.300	-11.439	
769.400	-18.538	
769.500	-16.590	
769.600	-20.059	
769.700	-10.619	
769.800	-13.267	
769.900	-3.061	
770.000	-8.613	
770.100	-9.398	
770.200	-8.624	
770.300	-22.811	
770.400	-11.395	
770.500	-7.229	
770.600	-12.072	
770.700	-11.305	
770.800	-13.814	
770.900	-14.003	
771.000	-10.022	
771.100	-8.449	
771.200	-13.485	
771.300	-16.866	
771.400	-10.933	
771.500	-15.017	
771.600	-10.372	
771.700	-17.133	
771.800	-6.254	
771.900	-20.657	
772.000	-16.669	
772.100	-15.505	
772.200	-19.192	
772.300	-25.864	
772.400	-13.012	
772.500	-5.922	
772.600	-7.216	
772.700	-5.830	
772.800	-10.380	
772.900	-17.359	
773.000	-17.111	
773.100	-14.478	
773.200	-24.390	
773.300	1.197	
773.400	-21.868	
773.500	-4.351	
773.600	-5.812	
773.700	-10.366	
773.800	-19.119	
773.900	-14.333	
774.000	-30.998	
774.100	-3.961	
774.200	-18.130	
774.300	-11.346	
774.400	-7.450	
774.500	0.109	
774.600	-10.148	
774.700	-15.339	
774.800	-5.391	
774.900	-15.120	
775.000	-17.774	
775.100	-9.371	
775.200	-25.617	
775.300	-7.411	
775.400	-19.908	
775.500	-11.674	
775.600	-15.585	
775.700	-10.556	
775.800	-10.706	
775.900	-11.841	
776.000	-16.527	
776.100	-21.089	
776.200	-11.984	
776.300	-11.824	
776.400	-15.601	
776.500	-11.668	
776.600	-30.361	
776.700	5.616	
776.800	-8.133	
776.900	-12.072	
777.000	-14.238	
777.100	-9.841	
777.200	-13.215	
777.300	-11.136	
777.400	-2.952	
777.500	-15.131	
777.600	-19.880	
777.700	1.059	
777.800	-11.061	
777.900	-14.471	
778.000	-11.008	
778.100	-18.913	
778.200	-18.449	
778.300	-10.305	
778.400	-8.485	
778.500	-5.169	
778.600	-14.356	
778.700	-12.245	
778.800	-0.085	
778.900	-13.497	
779.000	-8.901	
779.100	-10.469	
779.200	-18.388	
779.300	-4.617	
779.400	-33.440	
779.500	-13.683	
779.600	-14.254	
779.700	-7.156	
779.800	-0.409	
779.900	-3.914	
780.000	-10.856	
780.100	-1.947	
780.200	-7.621	
780.300	-6.386	
780.400	0.099	
780.500	0.480	
780.600	-9.244	
780.700	10.908	
780.800	-3.066	
780.900	-7.983	
781.000	-1.052	
781.100	27.235	
781.200	6.013	
781.300	25.496	
781.400	6.858	
781.500	14.484	
781.600	16.909	
781.700	20.221	
781.800	7.253	
781.900	18.318	
782.000	26.621	
782.100	6.195	
782.200	13.062	
782.300	19.970	
782.400	17.582	
782.500	31.343	
782.600	16.691	
782.700	25.920	
782.800	18.744	
782.900	16.355	
783.000	32.188	
783.100	4.337	
783.200	19.751	
783.300	18.421	
783.400	-9.498	
783.500	27.444	
783.600	17.895	
783.700	15.521	
783.800	28.849	
783.900	9.212	
784.000	22.281	
784.100	10.621	
784.200	23.473	
784.300	10.915	
784.400	19.646	
784.500	4.047	
784.600	27.490	
784.700	25.515	
784.800	-1.082	
784.900	16.823	
785.000	24.379	
785.100	9.880	
785.200	12.060	
785.300	20.135	
785.400	20.084	
785.500	16.556	
785.600	9.743	
785.700	12.198	
785.800	11.616	
785.900	25.885	
786.000	18.326	
786.100	16.509	
786.200	33.633	
786.300	12.536	
786.400	20.665	
786.500	15.389	
786.600	14.745	
786.700	16.588	
786.800	18.317	
786.900	15.771	
787.000	29.780	
787.100	7.735	
787.200	5.836	
787.300	19.604	
787.400	27.286	
787.500	14.723	
787.600	5.317	
787.700	21.877	
787.800	17.944	
787.900	9.483	
788.000	18.679	
788.100	10.189	
788.200	15.387	
788.300	-4.953	
788.400	18.316	
788.500	22.497	
788.600	29.138	
788.700	-5.829	
788.800	8.538	
788.900	23.376	
789.000	27.544	
789.100	23.887	
789.200	14.577	
789.300	17.029	
789.400	28.560	
789.500	13.117	
789.600	12.993	
789.700	23.245	
789.800	21.490	
789.900	12.949	
790.000	20.191	
790.100	24.198	
790.200	26.950	
790.300	7.900	
790.400	27.461	
790.500	21.660	
790.600	20.267	
790.700	21.390	
790.800	16.401	
790.900	34.474	
791.000	21.127	
791.100	15.033	
791.200	28.428	
791.300	9.255	
791.400	29.879	
791.500	21.215	
791.600	35.823	
791.700	18.595	
791.800	23.427	
791.900	19.779	
792.000	13.293	
792.100	40.748	
792.200	29.396	
792.300	20.800	
792.400	33.454	
792.500	35.357	
792.600	19.014	
792.700	35.535	
792.800	29.829	
792.900	35.000	
793.000	34.452	
793.100	23.002	
793.200	32.802	
793.300	35.702	
793.400	33.614	
793.500	33.847	
793.600	34.085	
793.700	29.618	
793.800	38.459	
793.900	36.534	
794.000	34.770	
794.100	35.684	
794.200	36.950	
794.300	39.456	
794.400	39.944	
794.500	41.113	
794.600	31.538	
794.700	31.197	
794.800	42.661	
794.900	38.927	
795.000	37.699	
795.100	21.598	
795.200	46.507	
795.300	41.502	
795.400	39.380	
795.500	31.904	
795.600	40.690	
795.700	45.246	
795.800	45.170	
795.900	32.416	
796.000	56.089	
796.100	37.591	
796.200	33.239	
796.300	45.590	
796.400	35.162	
796.500	51.837	
796.600	40.940	
796.700	53.404	
796.800	31.142	
796.900	53.815	
797.000	50.743	
797.100	48.519	
797.200	48.527	
797.300	43.144	
797.400	41.289	
797.500	56.334	
797.600	40.859	
797.700	41.162	
797.800	56.631	
797.900	52.500	
798.000	39.795	
798.100	45.324	
798.200	45.925	
798.300	41.312	
798.400	46.063	
798.500	63.189	
798.600	32.904	
798.700	24.354	
798.800	62.920	
798.900	52.689	
799.000	24.075	
799.100	53.129	
799.200	51.728	
799.300	44.808	
799.400	37.867	
799.500	46.389	
799.600	40.357	
799.700	44.836	
799.800	41.563	
799.900	33.248	
800.000	65.998	
