time /s	I /nA	
0.100	15.428	
0.200	-11.392	
0.300	-4.896	
0.400	-18.608	
0.500	-7.908	
0.600	-10.313	
0.700	-8.162	
0.800	-16.538	
0.900	-3.093	
1.000	-0.835	
1.100	-15.537	
1.200	-17.788	
1.300	7.342	
1.400	-9.267	
1.500	-15.906	
1.600	-15.040	
1.700	3.644	
1.800	-12.545	
1.900	-4.628	
2.000	-20.612	
2.100	-19.189	
2.200	-5.573	
2.300	-13.694	
2.400	0.677	
2.500	-13.443	
2.600	-0.753	
2.700	-0.223	
2.800	-16.905	
2.900	-5.906	
3.000	-2.416	
3.100	1.950	
3.200	-10.523	
3.300	-5.851	
3.400	-14.883	
3.500	-10.934	
3.600	-0.439	
3.700	0.269	
3.800	-25.564	
3.900	-3.876	
4.000	-17.368	
4.100	0.145	
4.200	-5.730	
4.300	-29.931	
4.400	13.069	
4.500	-8.814	
4.600	-4.263	
4.700	-9.922	
4.800	-1.996	
4.900	-23.810	
5.000	-11.712	
5.100	-2.368	
5.200	-6.525	
5.300	-21.710	
5.400	1.024	
5.500	-2.738	
5.600	-12.840	
5.700	-0.259	
5.800	1.170	
5.900	-6.303	
6.000	-5.531	
6.100	-13.797	
6.200	-3.523	
6.300	-14.366	
6.400	1.633	
6.500	-13.762	
6.600	-2.397	
6.700	-7.080	
6.800	-17.317	
6.900	-18.203	
7.000	11.567	
7.100	-6.114	
7.200	-11.575	
7.300	-5.389	
7.400	-3.631	
7.500	-13.249	
7.600	-7.004	
7.700	-17.883	
7.800	-11.827	
7.900	-6.973	
8.000	2.540	
8.100	-15.020	
8.200	-21.050	
8.300	2.414	
8.400	-12.819	
8.500	-12.016	
8.600	-7.348	
8.700	-11.415	
8.800	-1.778	
8.900	-6.920	
9.000	-17.989	
9.100	-19.317	
9.200	-4.548	
9.300	-15.282	
9.400	-10.161	
9.500	-9.464	
9.600	-11.170	
9.700	-14.431	
9.800	-13.275	
9.900	4.091	
10.000	-4.378	
10.100	-5.427	
10.200	-13.057	
10.300	1.879	
10.400	-19.794	
10.500	-20.097	
10.600	-4.710	
10.700	-16.841	
10.800	-10.099	
10.900	-4.064	
11.000	-15.480	
11.100	-1.339	
11.200	-27.437	
11.300	-4.332	
11.400	-1.631	
11.500	-28.664	
11.600	-15.325	
11.700	5.283	
11.800	-17.679	
11.900	-2.602	
12.000	-14.286	
12.100	3.380	
12.200	-6.997	
12.300	-9.932	
12.400	-21.471	
12.500	-3.855	
12.600	-5.144	
12.700	-26.045	
12.800	7.108	
12.900	-0.838	
13.000	-8.893	
13.100	-4.876	
13.200	-1.724	
13.300	-9.156	
13.400	-15.429	
13.500	-13.320	
13.600	-10.185	
13.700	-22.422	
13.800	4.482	
13.900	-10.139	
14.000	-0.357	
14.100	-7.292	
14.200	-13.418	
14.300	0.988	
14.400	4.649	
14.500	-1.308	
14.600	-14.935	
14.700	-37.477	
14.800	-4.559	
14.900	-2.883	
15.000	-4.642	
15.100	-4.548	
15.200	-5.353	
15.300	-29.287	
15.400	0.325	
15.500	-7.934	
15.600	-12.015	
15.700	-14.302	
15.800	13.273	
15.900	-13.600	
16.000	-21.107	
16.100	-13.899	
16.200	-12.762	
16.300	-17.315	
16.400	-15.901	
16.500	-1.626	
16.600	-3.499	
16.700	-3.827	
16.800	-11.442	
16.900	-16.460	
17.000	-4.278	
17.100	-12.207	
17.200	-9.512	
17.300	-9.419	
17.400	-3.637	
17.500	-3.844	
17.600	-20.075	
17.700	-9.213	
17.800	-14.321	
17.900	-2.524	
18.000	6.146	
18.100	-0.696	
18.200	-3.902	
18.300	-4.768	
18.400	-12.675	
18.500	-2.504	
18.600	-11.086	
18.700	-11.957	
18.800	-10.442	
18.900	-10.770	
19.000	-4.305	
19.100	-7.258	
19.200	-13.246	
19.300	5.413	
19.400	0.947	
19.500	-22.452	
19.600	-8.822	
19.700	-4.285	
19.800	-13.601	
19.900	3.631	
20.000	-4.619	
20.100	-12.447	
20.200	-0.206	
20.300	-13.266	
20.400	-12.918	
20.500	-5.966	
20.600	-7.048	
20.700	-7.465	
20.800	-9.650	
20.900	-20.246	
21.000	-12.299	
21.100	2.112	
21.200	-6.465	
21.300	-2.941	
21.400	-4.511	
21.500	-7.273	
21.600	-11.431	
21.700	-0.745	
21.800	-10.459	
21.900	-22.740	
22.000	-12.504	
22.100	-2.799	
22.200	-10.612	
22.300	-0.998	
22.400	-12.101	
22.500	-7.454	
22.600	-6.722	
22.700	-15.006	
22.800	-3.269	
22.900	2.303	
23.000	-1.229	
23.100	-24.843	
23.200	-19.533	
23.300	-0.573	
23.400	-8.626	
23.500	-14.264	
23.600	-5.778	
23.700	-9.827	
23.800	-17.862	
23.900	-14.631	
24.000	-1.037	
24.100	-2.106	
24.200	-21.638	
24.300	9.580	
24.400	2.133	
24.500	-24.265	
24.600	3.953	
24.700	-14.734	
24.800	-8.366	
24.900	-21.314	
25.000	6.094	
25.100	-16.780	
25.200	-3.175	
25.300	-6.725	
25.400	-14.407	
25.500	-20.162	
25.600	-0.057	
25.700	1.988	
25.800	-15.178	
25.900	5.450	
26.000	-2.796	
26.100	-26.488	
26.200	-12.109	
26.300	-3.363	
26.400	-16.908	
26.500	-10.317	
26.600	-12.396	
26.700	-15.808	
26.800	12.864	
26.900	-14.021	
27.000	-21.814	
27.100	-20.680	
27.200	-6.881	
27.300	-15.632	
27.400	2.536	
27.500	-5.248	
27.600	-6.543	
27.700	-12.172	
27.800	-0.042	
27.900	-17.918	
28.000	-9.784	
28.100	-4.456	
28.200	-3.641	
28.300	-14.316	
28.400	-16.182	
28.500	-10.814	
28.600	-7.476	
28.700	5.992	
28.800	-4.539	
28.900	-8.446	
29.000	5.628	
29.100	-6.254	
29.200	-15.951	
29.300	-9.558	
29.400	2.956	
29.500	-12.751	
29.600	-2.898	
29.700	6.009	
29.800	5.984	
29.900	12.654	
30.000	6.903	
30.100	39.008	
30.200	34.670	
30.300	38.591	
30.400	19.018	
30.500	40.823	
30.600	42.957	
30.700	24.681	
30.800	50.385	
30.900	33.328	
31.000	56.990	
31.100	43.906	
31.200	62.185	
31.300	55.337	
31.400	47.034	
31.500	35.497	
31.600	39.131	
31.700	37.484	
31.800	36.648	
31.900	33.217	
32.000	57.137	
32.100	19.073	
32.200	51.008	
32.300	43.848	
32.400	42.536	
32.500	47.645	
32.600	26.026	
32.700	24.825	
32.800	43.051	
32.900	35.102	
33.000	32.484	
33.100	32.993	
33.200	43.960	
33.300	26.706	
33.400	36.081	
33.500	35.125	
33.600	30.807	
33.700	30.464	
33.800	34.255	
33.900	35.081	
34.000	33.206	
34.100	38.965	
34.200	33.816	
34.300	38.758	
34.400	33.015	
34.500	38.252	
34.600	24.352	
34.700	28.785	
34.800	45.669	
34.900	32.998	
35.000	23.734	
35.100	34.903	
35.200	42.365	
35.300	43.631	
35.400	46.567	
35.500	41.134	
35.600	45.992	
35.700	39.653	
35.800	40.546	
35.900	48.036	
36.000	41.157	
36.100	42.707	
36.200	41.697	
36.300	42.429	
36.400	38.505	
36.500	30.065	
36.600	53.678	
36.700	35.370	
36.800	45.644	
36.900	39.785	
37.000	55.325	
37.100	41.584	
37.200	41.805	
37.300	48.422	
37.400	51.357	
37.500	37.508	
37.600	50.361	
37.700	55.664	
37.800	51.902	
37.900	37.012	
38.000	49.570	
38.100	46.218	
38.200	50.419	
38.300	39.774	
38.400	53.392	
38.500	40.643	
38.600	52.870	
38.700	60.014	
38.800	51.214	
38.900	34.880	
39.000	60.895	
39.100	45.866	
39.200	55.191	
39.300	49.716	
39.400	39.620	
39.500	49.739	
39.600	49.382	
39.700	47.776	
39.800	68.102	
39.900	49.322	
40.000	56.144	
40.100	46.355	
40.200	49.297	
40.300	49.217	
40.400	40.791	
40.500	48.628	
40.600	54.575	
40.700	35.753	
40.800	48.056	
40.900	50.224	
41.000	51.672	
41.100	59.511	
41.200	47.100	
41.300	44.132	
41.400	51.566	
41.500	48.920	
41.600	49.274	
41.700	56.528	
41.800	47.682	
41.900	50.017	
42.000	53.601	
42.100	57.672	
42.200	48.180	
42.300	38.427	
42.400	52.507	
42.500	50.291	
42.600	42.134	
42.700	60.779	
42.800	39.706	
42.900	54.423	
43.000	55.506	
43.100	54.653	
43.200	34.628	
43.300	54.237	
43.400	57.167	
43.500	46.387	
43.600	41.110	
43.700	58.879	
43.800	49.711	
43.900	53.206	
44.000	67.894	
44.100	48.359	
44.200	35.566	
44.300	63.618	
44.400	54.658	
44.500	40.748	
44.600	44.719	
44.700	58.695	
44.800	55.225	
44.900	63.156	
45.000	46.429	
45.100	39.113	
45.200	49.631	
45.300	50.892	
45.400	63.339	
45.500	45.125	
45.600	47.083	
45.700	60.579	
45.800	50.331	
45.900	45.934	
46.000	60.271	
46.100	50.927	
46.200	39.682	
46.300	43.159	
46.400	52.410	
46.500	67.979	
46.600	50.237	
46.700	52.685	
46.800	50.297	
46.900	56.109	
47.000	41.485	
47.100	55.313	
47.200	40.337	
47.300	64.213	
47.400	54.049	
47.500	35.543	
47.600	44.084	
47.700	55.723	
47.800	42.993	
47.900	51.942	
48.000	54.819	
48.100	56.000	
48.200	37.838	
48.300	51.722	
48.400	54.801	
48.500	54.816	
48.600	45.571	
48.700	45.935	
48.800	54.840	
48.900	51.472	
49.000	53.633	
49.100	42.071	
49.200	48.349	
49.300	52.324	
49.400	39.483	
49.500	43.111	
49.600	65.307	
49.700	40.499	
49.800	54.841	
49.900	50.608	
50.000	54.078	
50.100	54.681	
50.200	61.631	
50.300	37.062	
50.400	53.081	
50.500	31.555	
50.600	51.369	
50.700	48.560	
50.800	49.690	
50.900	50.036	
51.000	54.132	
51.100	48.811	
51.200	46.763	
51.300	45.752	
51.400	56.235	
51.500	47.776	
51.600	53.594	
51.700	43.339	
51.800	47.481	
51.900	61.773	
52.000	58.777	
52.100	39.822	
52.200	60.656	
52.300	41.167	
52.400	55.375	
52.500	37.326	
52.600	50.418	
52.700	44.408	
52.800	44.494	
52.900	56.542	
53.000	54.831	
53.100	37.318	
53.200	42.750	
53.300	59.138	
53.400	46.766	
53.500	49.582	
53.600	40.435	
53.700	43.083	
53.800	62.621	
53.900	60.367	
54.000	49.222	
54.100	55.726	
54.200	53.381	
54.300	52.822	
54.400	66.737	
54.500	40.874	
54.600	53.298	
54.700	53.336	
54.800	47.899	
54.900	56.992	
55.000	50.830	
55.100	56.816	
55.200	50.382	
55.300	57.583	
55.400	47.564	
55.500	50.373	
55.600	49.787	
55.700	55.578	
55.800	54.703	
55.900	38.882	
56.000	45.654	
56.100	51.279	
56.200	58.116	
56.300	47.775	
56.400	57.561	
56.500	61.352	
56.600	43.183	
56.700	50.339	
56.800	49.144	
56.900	60.885	
57.000	41.431	
57.100	54.819	
57.200	51.137	
57.300	53.282	
57.400	42.473	
57.500	45.849	
57.600	44.201	
57.700	32.880	
57.800	55.914	
57.900	40.610	
58.000	47.148	
58.100	56.211	
58.200	59.632	
58.300	51.555	
58.400	36.360	
58.500	64.118	
58.600	55.476	
58.700	50.591	
58.800	48.914	
58.900	46.203	
59.000	46.503	
59.100	64.769	
59.200	43.892	
59.300	45.997	
59.400	55.679	
59.500	56.835	
59.600	58.738	
59.700	43.216	
59.800	60.224	
59.900	43.005	
60.000	43.359	
60.100	59.751	
60.200	62.130	
60.300	64.342	
60.400	50.699	
60.500	54.494	
60.600	58.639	
60.700	33.271	
60.800	60.818	
60.900	48.659	
61.000	60.859	
61.100	39.920	
61.200	64.744	
61.300	46.659	
61.400	42.284	
61.500	53.703	
61.600	58.179	
61.700	44.406	
61.800	40.605	
61.900	63.292	
62.000	37.250	
62.100	63.891	
62.200	43.850	
62.300	50.758	
62.400	47.793	
62.500	59.302	
62.600	50.972	
62.700	50.326	
62.800	47.217	
62.900	53.351	
63.000	52.753	
63.100	63.782	
63.200	54.746	
63.300	54.077	
63.400	52.765	
63.500	43.645	
63.600	47.262	
63.700	47.964	
63.800	51.653	
63.900	49.147	
64.000	40.863	
64.100	52.014	
64.200	42.656	
64.300	41.483	
64.400	48.458	
64.500	67.747	
64.600	61.442	
64.700	50.915	
64.800	39.931	
64.900	57.406	
65.000	62.107	
65.100	41.715	
65.200	47.874	
65.300	55.308	
65.400	42.274	
65.500	62.751	
65.600	60.439	
65.700	58.798	
65.800	44.591	
65.900	52.056	
66.000	60.808	
66.100	63.801	
66.200	55.205	
66.300	47.608	
66.400	40.982	
66.500	50.344	
66.600	68.731	
66.700	60.470	
66.800	56.098	
66.900	53.116	
67.000	50.719	
67.100	56.291	
67.200	65.573	
67.300	59.229	
67.400	51.453	
67.500	56.280	
67.600	50.824	
67.700	50.292	
67.800	59.333	
67.900	56.207	
68.000	47.551	
68.100	60.144	
68.200	54.819	
68.300	40.383	
68.400	56.672	
68.500	41.313	
68.600	54.918	
68.700	64.029	
68.800	60.439	
68.900	36.353	
69.000	48.416	
69.100	53.414	
69.200	54.002	
69.300	63.448	
69.400	70.015	
69.500	55.410	
69.600	58.101	
69.700	71.781	
69.800	48.407	
69.900	47.595	
70.000	54.100	
70.100	53.868	
70.200	50.868	
70.300	54.992	
70.400	65.620	
70.500	51.699	
70.600	50.801	
70.700	59.522	
70.800	56.667	
70.900	48.548	
71.000	61.848	
71.100	60.036	
71.200	52.559	
71.300	54.285	
71.400	54.085	
71.500	52.286	
71.600	47.395	
71.700	46.505	
71.800	61.744	
71.900	57.239	
72.000	60.359	
72.100	67.967	
72.200	49.069	
72.300	61.260	
72.400	52.106	
72.500	59.185	
72.600	62.284	
72.700	51.721	
72.800	60.504	
72.900	58.474	
73.000	57.717	
73.100	53.669	
73.200	63.584	
73.300	51.498	
73.400	51.507	
73.500	54.542	
73.600	47.469	
73.700	63.655	
73.800	51.653	
73.900	40.788	
74.000	62.111	
74.100	56.375	
74.200	52.744	
74.300	59.892	
74.400	76.953	
74.500	45.014	
74.600	66.069	
74.700	51.053	
74.800	48.630	
74.900	66.272	
75.000	52.564	
75.100	54.060	
75.200	46.732	
75.300	49.641	
75.400	56.154	
75.500	59.302	
75.600	53.591	
75.700	54.647	
75.800	56.359	
75.900	60.177	
76.000	61.487	
76.100	68.535	
76.200	60.966	
76.300	49.515	
76.400	45.057	
76.500	44.513	
76.600	45.408	
76.700	68.820	
76.800	66.162	
76.900	50.210	
77.000	51.943	
77.100	57.812	
77.200	70.667	
77.300	55.215	
77.400	62.887	
77.500	60.486	
77.600	49.703	
77.700	66.236	
77.800	59.185	
77.900	50.834	
78.000	58.118	
78.100	60.532	
78.200	56.847	
78.300	56.212	
78.400	65.450	
78.500	64.513	
78.600	55.277	
78.700	55.468	
78.800	51.688	
78.900	53.258	
79.000	58.195	
79.100	57.359	
79.200	50.281	
79.300	66.572	
79.400	57.757	
79.500	53.476	
79.600	59.932	
79.700	57.228	
79.800	50.730	
79.900	54.474	
80.000	60.522	
80.100	58.005	
80.200	62.998	
80.300	54.766	
80.400	58.571	
80.500	68.503	
80.600	45.982	
80.700	58.723	
80.800	70.937	
80.900	63.979	
81.000	47.882	
81.100	67.935	
81.200	54.523	
81.300	48.147	
81.400	50.395	
81.500	60.457	
81.600	57.443	
81.700	64.277	
81.800	61.624	
81.900	52.987	
82.000	60.444	
82.100	52.424	
82.200	66.363	
82.300	54.965	
82.400	41.215	
82.500	66.546	
82.600	52.121	
82.700	58.549	
82.800	62.872	
82.900	58.773	
83.000	67.959	
83.100	47.225	
83.200	49.367	
83.300	51.672	
83.400	44.254	
83.500	59.731	
83.600	55.175	
83.700	60.021	
83.800	60.391	
83.900	59.142	
84.000	59.833	
84.100	60.250	
84.200	55.943	
84.300	53.568	
84.400	52.807	
84.500	62.783	
84.600	47.893	
84.700	60.875	
84.800	76.251	
84.900	55.100	
85.000	52.787	
85.100	56.159	
85.200	62.302	
85.300	56.620	
85.400	49.703	
85.500	61.962	
85.600	67.117	
85.700	58.750	
85.800	55.150	
85.900	51.290	
86.000	45.126	
86.100	65.019	
86.200	62.283	
86.300	57.309	
86.400	64.136	
86.500	63.700	
86.600	55.634	
86.700	44.859	
86.800	68.148	
86.900	48.923	
87.000	67.499	
87.100	64.611	
87.200	58.490	
87.300	45.659	
87.400	59.626	
87.500	45.343	
87.600	70.870	
87.700	45.545	
87.800	76.908	
87.900	56.342	
88.000	53.018	
88.100	62.190	
88.200	63.791	
88.300	38.346	
88.400	71.095	
88.500	62.536	
88.600	52.347	
88.700	51.092	
88.800	64.845	
88.900	51.863	
89.000	51.934	
89.100	48.212	
89.200	64.843	
89.300	62.401	
89.400	64.599	
89.500	42.914	
89.600	54.766	
89.700	41.231	
89.800	69.724	
89.900	42.979	
90.000	39.169	
90.100	45.734	
90.200	39.850	
90.300	10.534	
90.400	17.407	
90.500	10.789	
90.600	0.566	
90.700	-2.828	
90.800	-1.404	
90.900	-15.076	
91.000	-26.595	
91.100	-31.292	
91.200	-17.940	
91.300	-45.362	
91.400	-46.687	
91.500	-41.556	
91.600	-47.652	
91.700	-62.617	
91.800	-51.933	
91.900	-54.839	
92.000	-59.840	
92.100	-47.152	
92.200	-74.414	
92.300	-47.971	
92.400	-70.528	
92.500	-67.923	
92.600	-76.483	
92.700	-58.123	
92.800	-72.514	
92.900	-70.787	
93.000	-72.633	
93.100	-64.369	
93.200	-56.979	
93.300	-79.018	
93.400	-63.031	
93.500	-59.138	
93.600	-70.321	
93.700	-54.697	
93.800	-51.545	
93.900	-61.919	
94.000	-66.813	
94.100	-69.974	
94.200	-70.499	
94.300	-56.259	
94.400	-69.533	
94.500	-64.402	
94.600	-53.109	
94.700	-47.775	
94.800	-68.521	
94.900	-54.878	
95.000	-62.758	
95.100	-43.631	
95.200	-60.594	
95.300	-49.590	
95.400	-48.833	
95.500	-60.269	
95.600	-59.346	
95.700	-58.447	
95.800	-51.176	
95.900	-54.707	
96.000	-47.384	
96.100	-55.068	
96.200	-54.403	
96.300	-43.976	
96.400	-58.904	
96.500	-38.265	
96.600	-52.327	
96.700	-71.447	
96.800	-52.225	
96.900	-55.502	
97.000	-30.278	
97.100	-51.357	
97.200	-40.901	
97.300	-55.850	
97.400	-46.430	
97.500	-55.957	
97.600	-55.095	
97.700	-47.944	
97.800	-49.758	
97.900	-50.467	
98.000	-45.889	
98.100	-41.080	
98.200	-46.183	
98.300	-47.745	
98.400	-42.272	
98.500	-51.243	
98.600	-50.436	
98.700	-41.066	
98.800	-54.473	
98.900	-56.842	
99.000	-35.984	
99.100	-37.078	
99.200	-59.521	
99.300	-23.802	
99.400	-44.826	
99.500	-43.702	
99.600	-40.430	
99.700	-60.542	
99.800	-42.065	
99.900	-42.220	
100.000	-43.878	
100.100	-49.616	
100.200	-41.653	
100.300	-55.103	
100.400	-33.472	
100.500	-43.947	
100.600	-49.956	
100.700	-50.779	
100.800	-42.573	
100.900	-33.923	
101.000	-42.183	
101.100	-44.204	
101.200	-41.291	
101.300	-53.662	
101.400	-47.585	
101.500	-34.678	
101.600	-47.184	
101.700	-43.587	
101.800	-48.526	
101.900	-46.784	
102.000	-48.753	
102.100	-32.224	
102.200	-50.649	
102.300	-46.733	
102.400	-43.786	
102.500	-40.311	
102.600	-53.181	
102.700	-44.252	
102.800	-36.919	
102.900	-32.482	
103.000	-41.686	
103.100	-40.615	
103.200	-48.728	
103.300	-40.517	
103.400	-41.373	
103.500	-59.273	
103.600	-26.164	
103.700	-40.247	
103.800	-36.583	
103.900	-46.148	
104.000	-36.777	
104.100	-42.203	
104.200	-41.063	
104.300	-36.262	
104.400	-39.481	
104.500	-31.950	
104.600	-44.446	
104.700	-42.698	
104.800	-37.055	
104.900	-50.855	
105.000	-37.757	
105.100	-43.998	
105.200	-41.427	
105.300	-30.175	
105.400	-26.084	
105.500	-47.058	
105.600	-37.548	
105.700	-40.320	
105.800	-42.401	
105.900	-51.345	
106.000	-38.347	
106.100	-37.034	
106.200	-38.689	
106.300	-37.563	
106.400	-44.817	
106.500	-35.598	
106.600	-44.953	
106.700	-35.492	
106.800	-28.070	
106.900	-32.162	
107.000	-40.414	
107.100	-34.600	
107.200	-20.445	
107.300	-42.728	
107.400	-23.117	
107.500	-25.837	
107.600	-38.030	
107.700	-33.736	
107.800	-42.897	
107.900	-51.433	
108.000	-30.822	
108.100	-47.637	
108.200	-32.461	
108.300	-39.053	
108.400	-17.288	
108.500	-36.868	
108.600	-39.866	
108.700	-38.134	
108.800	-25.669	
108.900	-34.009	
109.000	-40.659	
109.100	-40.946	
109.200	-33.293	
109.300	-28.717	
109.400	-29.114	
109.500	-36.584	
109.600	-33.728	
109.700	-48.169	
109.800	-41.167	
109.900	-33.889	
110.000	-43.735	
110.100	-34.878	
110.200	-19.081	
110.300	-18.608	
110.400	-26.954	
110.500	-39.950	
110.600	-45.949	
110.700	-31.536	
110.800	-26.932	
110.900	-26.067	
111.000	-34.294	
111.100	-32.924	
111.200	-35.462	
111.300	-30.106	
111.400	-32.906	
111.500	-21.773	
111.600	-28.493	
111.700	-32.422	
111.800	-35.920	
111.900	-37.587	
112.000	-29.108	
112.100	-38.136	
112.200	-33.295	
112.300	-36.039	
112.400	-25.363	
112.500	-22.126	
112.600	-30.781	
112.700	-36.248	
112.800	-39.090	
112.900	-42.745	
113.000	-34.358	
113.100	-22.159	
113.200	-31.568	
113.300	-32.986	
113.400	-24.618	
113.500	-39.215	
113.600	-20.321	
113.700	-35.497	
113.800	-35.836	
113.900	-34.457	
114.000	-21.716	
114.100	-31.163	
114.200	-30.538	
114.300	-41.258	
114.400	-26.592	
114.500	-11.672	
114.600	-25.368	
114.700	-27.710	
114.800	-29.033	
114.900	-28.262	
115.000	-32.187	
115.100	-36.037	
115.200	-5.982	
115.300	-21.068	
115.400	-22.371	
115.500	-43.073	
115.600	-32.189	
115.700	-18.676	
115.800	-27.931	
115.900	-39.757	
116.000	-29.001	
116.100	-28.711	
116.200	-20.527	
116.300	-16.997	
116.400	-31.664	
116.500	-25.345	
116.600	-24.683	
116.700	-31.348	
116.800	-30.314	
116.900	-41.740	
117.000	-23.604	
117.100	-29.479	
117.200	-25.293	
117.300	-16.879	
117.400	-28.879	
117.500	-23.909	
117.600	-32.285	
117.700	-18.718	
117.800	-36.480	
117.900	-24.117	
118.000	-20.983	
118.100	-20.046	
118.200	-26.243	
118.300	-28.069	
118.400	-25.065	
118.500	-34.205	
118.600	-27.234	
118.700	-20.205	
118.800	-30.142	
118.900	-39.794	
119.000	-12.048	
119.100	-25.981	
119.200	-24.256	
119.300	-25.520	
119.400	-33.525	
119.500	-24.940	
119.600	-33.592	
119.700	-19.458	
119.800	-21.881	
119.900	-14.831	
120.000	-17.332	
120.100	-20.043	
120.200	-24.108	
120.300	-26.182	
120.400	-3.512	
120.500	-35.377	
120.600	-20.543	
120.700	-10.176	
120.800	-34.477	
120.900	-15.572	
121.000	-33.008	
121.100	-29.981	
121.200	-12.571	
121.300	-26.431	
121.400	-26.625	
121.500	-44.080	
121.600	-11.706	
121.700	-29.830	
121.800	-27.305	
121.900	-26.481	
122.000	-18.940	
122.100	-20.742	
122.200	-31.381	
122.300	-7.480	
122.400	-32.912	
122.500	-21.051	
122.600	-30.825	
122.700	-18.518	
122.800	-13.402	
122.900	-20.938	
123.000	-21.314	
123.100	-27.620	
123.200	-21.347	
123.300	-32.986	
123.400	-21.028	
123.500	-6.503	
123.600	-11.946	
123.700	-17.489	
123.800	-15.911	
123.900	-24.803	
124.000	-22.240	
124.100	-15.820	
124.200	-23.692	
124.300	-16.131	
124.400	-44.670	
124.500	-17.182	
124.600	-5.541	
124.700	-30.085	
124.800	-20.360	
124.900	-29.209	
125.000	-28.750	
125.100	-16.348	
125.200	-14.818	
125.300	-28.571	
125.400	-29.127	
125.500	-25.306	
125.600	-8.049	
125.700	-26.539	
125.800	-26.713	
125.900	-15.676	
126.000	-16.165	
126.100	-6.570	
126.200	-11.617	
126.300	-40.652	
126.400	-10.108	
126.500	-43.252	
126.600	-11.842	
126.700	-19.878	
126.800	-10.583	
126.900	-17.246	
127.000	-14.785	
127.100	-28.855	
127.200	-25.120	
127.300	-15.795	
127.400	-30.269	
127.500	-4.710	
127.600	-20.526	
127.700	-10.559	
127.800	-19.713	
127.900	-30.022	
128.000	-16.112	
128.100	-24.920	
128.200	-20.398	
128.300	-17.684	
128.400	-38.217	
128.500	-21.780	
128.600	-16.295	
128.700	-19.359	
128.800	-29.726	
128.900	-28.013	
129.000	-28.969	
129.100	-0.794	
129.200	-1.721	
129.300	-13.794	
129.400	-17.295	
129.500	-7.120	
129.600	-32.478	
129.700	-22.790	
129.800	-12.403	
129.900	-22.996	
130.000	-29.921	
130.100	-19.239	
130.200	-31.889	
130.300	-6.398	
130.400	-18.486	
130.500	-9.647	
130.600	-22.019	
130.700	-9.763	
130.800	-23.420	
130.900	-22.734	
131.000	-9.198	
131.100	-11.220	
131.200	-20.435	
131.300	-27.260	
131.400	-17.612	
131.500	-5.125	
131.600	-14.752	
131.700	-27.523	
131.800	-23.910	
131.900	-20.680	
132.000	-14.113	
132.100	-17.509	
132.200	-28.173	
132.300	-22.467	
132.400	-20.439	
132.500	-18.894	
132.600	-21.741	
132.700	-19.793	
132.800	-21.162	
132.900	-16.787	
133.000	-12.791	
133.100	0.855	
133.200	-22.023	
133.300	-27.036	
133.400	-11.958	
133.500	-16.887	
133.600	-0.697	
133.700	-31.249	
133.800	-8.776	
133.900	-14.243	
134.000	-33.446	
134.100	-13.122	
134.200	-20.123	
134.300	-17.800	
134.400	-15.253	
134.500	-21.730	
134.600	-22.414	
134.700	-6.654	
134.800	-17.406	
134.900	-11.228	
135.000	-25.600	
135.100	-9.757	
135.200	-17.854	
135.300	-9.463	
135.400	0.855	
135.500	-27.981	
135.600	-18.639	
135.700	-14.788	
135.800	-22.565	
135.900	-12.625	
136.000	-15.355	
136.100	-34.056	
136.200	-5.078	
136.300	-5.370	
136.400	-35.478	
136.500	-7.503	
136.600	-20.531	
136.700	-9.667	
136.800	-22.286	
136.900	-12.951	
137.000	-28.641	
137.100	-26.173	
137.200	-19.991	
137.300	-19.593	
137.400	-17.333	
137.500	-10.443	
137.600	-17.954	
137.700	-16.482	
137.800	-12.067	
137.900	-14.994	
138.000	-7.142	
138.100	-17.721	
138.200	-12.430	
138.300	-25.286	
138.400	-11.400	
138.500	-10.149	
138.600	-8.466	
138.700	-18.341	
138.800	-10.294	
138.900	-23.608	
139.000	-22.751	
139.100	-14.719	
139.200	-9.632	
139.300	-17.235	
139.400	-19.442	
139.500	-10.146	
139.600	-28.326	
139.700	-5.942	
139.800	-12.863	
139.900	-22.912	
140.000	-22.242	
140.100	-7.640	
140.200	-17.639	
140.300	-22.947	
140.400	-7.300	
140.500	-16.423	
140.600	-29.599	
140.700	2.548	
140.800	-11.671	
140.900	-16.665	
141.000	-12.687	
141.100	-23.345	
141.200	-21.753	
141.300	-11.157	
141.400	-8.436	
141.500	-9.861	
141.600	-17.456	
141.700	-16.366	
141.800	-21.572	
141.900	-12.838	
142.000	-11.003	
142.100	-24.176	
142.200	-22.729	
142.300	-19.832	
142.400	-9.501	
142.500	-8.659	
142.600	-13.485	
142.700	-14.329	
142.800	-16.373	
142.900	-17.039	
143.000	-13.031	
143.100	-9.971	
143.200	-17.141	
143.300	-12.053	
143.400	-20.242	
143.500	-11.171	
143.600	-6.550	
143.700	-15.885	
143.800	-15.644	
143.900	-23.630	
144.000	-21.544	
144.100	-11.026	
144.200	-20.094	
144.300	-16.251	
144.400	-19.227	
144.500	-20.326	
144.600	-10.930	
144.700	-13.801	
144.800	8.687	
144.900	-10.397	
145.000	-13.398	
145.100	-27.533	
145.200	-16.822	
145.300	-8.472	
145.400	-23.749	
145.500	-0.968	
145.600	-4.254	
145.700	-4.010	
145.800	-17.226	
145.900	-22.026	
146.000	-13.465	
146.100	-25.395	
146.200	-11.739	
146.300	-17.214	
146.400	-10.936	
146.500	-18.425	
146.600	-14.577	
146.700	-10.787	
146.800	-4.141	
146.900	-14.589	
147.000	-9.068	
147.100	-21.091	
147.200	-10.301	
147.300	-12.621	
147.400	-17.461	
147.500	-13.919	
147.600	-24.216	
147.700	-19.545	
147.800	-19.181	
147.900	-21.351	
148.000	-6.233	
148.100	-25.510	
148.200	-8.629	
148.300	-15.721	
148.400	-19.171	
148.500	-16.848	
148.600	-18.038	
148.700	-18.094	
148.800	-6.349	
148.900	-10.311	
149.000	-15.585	
149.100	-6.301	
149.200	-31.446	
149.300	-6.343	
149.400	-27.274	
149.500	-3.385	
149.600	-15.163	
149.700	-7.948	
149.800	-9.556	
149.900	-9.002	
150.000	-9.740	
150.100	-24.323	
150.200	-22.528	
150.300	-14.625	
150.400	-10.071	
150.500	-10.603	
150.600	-2.628	
150.700	11.724	
150.800	-13.145	
150.900	-31.758	
151.000	-32.033	
151.100	-11.740	
151.200	-20.714	
151.300	-17.057	
151.400	-4.867	
151.500	-22.188	
151.600	-4.813	
151.700	3.753	
151.800	-37.910	
151.900	-18.507	
152.000	-6.163	
152.100	-16.229	
152.200	-15.279	
152.300	-10.292	
152.400	-18.761	
152.500	-15.072	
152.600	-12.434	
152.700	-15.240	
152.800	-13.203	
152.900	-22.866	
153.000	-18.851	
153.100	-4.222	
153.200	-9.288	
153.300	-17.971	
153.400	-14.665	
153.500	-21.291	
153.600	-3.210	
153.700	-15.100	
153.800	-19.782	
153.900	-11.818	
154.000	-19.593	
154.100	-15.569	
154.200	-13.720	
154.300	-21.015	
154.400	-11.293	
154.500	-16.831	
154.600	-17.388	
154.700	-10.288	
154.800	-10.766	
154.900	-5.092	
155.000	-15.816	
155.100	-1.733	
155.200	-11.475	
155.300	-11.732	
155.400	-29.658	
155.500	-14.579	
155.600	-4.353	
155.700	-24.136	
155.800	2.919	
155.900	-26.354	
156.000	-8.087	
156.100	-19.342	
156.200	-9.323	
156.300	-3.319	
156.400	-11.883	
156.500	-5.889	
156.600	-27.996	
156.700	-8.154	
156.800	-15.318	
156.900	-13.079	
157.000	-15.808	
157.100	-9.865	
157.200	-11.957	
157.300	-5.498	
157.400	-17.487	
157.500	-9.341	
157.600	-6.414	
157.700	-16.610	
157.800	-12.820	
157.900	-12.332	
158.000	-11.188	
158.100	-11.618	
158.200	1.896	
158.300	-9.621	
158.400	-34.835	
158.500	-11.912	
158.600	0.598	
158.700	-3.350	
158.800	-15.556	
158.900	-6.167	
159.000	-6.247	
159.100	-20.154	
159.200	-7.719	
159.300	-19.372	
159.400	-15.847	
159.500	-24.482	
159.600	-17.808	
159.700	0.189	
159.800	-11.274	
159.900	-17.676	
160.000	-9.107	
160.100	0.772	
160.200	-11.614	
160.300	-24.318	
160.400	-7.977	
160.500	-5.018	
160.600	-8.531	
160.700	-14.618	
160.800	-13.414	
160.900	-0.255	
161.000	-13.549	
161.100	-10.501	
161.200	-13.248	
161.300	-3.512	
161.400	-23.115	
161.500	1.754	
161.600	-4.118	
161.700	-9.012	
161.800	-8.357	
161.900	-24.852	
162.000	-2.920	
162.100	-9.116	
162.200	-17.900	
162.300	-5.892	
162.400	-15.452	
162.500	-20.888	
162.600	-20.259	
162.700	-1.023	
162.800	-8.919	
162.900	-11.527	
163.000	-6.330	
163.100	-12.213	
163.200	-17.500	
163.300	-14.752	
163.400	-0.904	
163.500	-23.719	
163.600	-8.898	
163.700	-15.692	
163.800	-3.752	
163.900	-17.351	
164.000	-10.974	
164.100	-11.597	
164.200	-16.789	
164.300	-22.452	
164.400	-18.816	
164.500	-10.282	
164.600	-7.873	
164.700	-32.382	
164.800	-2.963	
164.900	-7.156	
165.000	-21.105	
165.100	2.884	
165.200	-13.885	
165.300	-20.786	
165.400	-3.657	
165.500	-19.970	
165.600	-17.137	
165.700	3.402	
165.800	-8.597	
165.900	-7.933	
166.000	-11.687	
166.100	-18.523	
166.200	-15.282	
166.300	-9.694	
166.400	-15.659	
166.500	-13.655	
166.600	-8.003	
166.700	-8.400	
166.800	-11.366	
166.900	-8.721	
167.000	-18.318	
167.100	-13.561	
167.200	-10.444	
167.300	-6.089	
167.400	-5.037	
167.500	-10.553	
167.600	2.320	
167.700	-18.890	
167.800	-11.539	
167.900	-16.799	
168.000	2.932	
168.100	-7.941	
168.200	-11.342	
168.300	-3.011	
168.400	-7.832	
168.500	-3.675	
168.600	-22.186	
168.700	-19.616	
168.800	9.783	
168.900	-9.872	
169.000	-13.298	
169.100	-15.848	
169.200	-4.976	
169.300	-17.545	
169.400	-22.798	
169.500	-15.563	
169.600	-8.413	
169.700	-1.485	
169.800	-10.423	
169.900	-14.424	
170.000	-5.954	
170.100	-17.897	
170.200	-5.014	
170.300	-1.945	
170.400	-17.962	
170.500	-18.195	
170.600	-23.716	
170.700	-21.675	
170.800	-4.016	
170.900	-18.252	
171.000	-8.270	
171.100	-15.703	
171.200	-6.247	
171.300	-12.197	
171.400	-14.481	
171.500	-5.724	
171.600	-31.067	
171.700	-19.047	
171.800	0.047	
171.900	-2.966	
172.000	-14.959	
172.100	-4.762	
172.200	1.351	
172.300	-5.819	
172.400	-35.409	
172.500	-2.362	
172.600	-13.305	
172.700	-37.218	
172.800	-19.599	
172.900	-1.360	
173.000	-6.575	
173.100	-26.327	
173.200	-10.875	
173.300	0.338	
173.400	-8.930	
173.500	-17.860	
173.600	-10.545	
173.700	-18.198	
173.800	-13.273	
173.900	-7.661	
174.000	-25.727	
174.100	-2.098	
174.200	1.477	
174.300	-10.301	
174.400	-17.051	
174.500	-12.895	
174.600	-13.491	
174.700	-11.003	
174.800	-12.882	
174.900	-19.340	
175.000	-14.737	
175.100	-19.029	
175.200	-9.189	
175.300	-10.189	
175.400	-1.179	
175.500	-23.438	
175.600	-16.575	
175.700	2.005	
175.800	-10.409	
175.900	-9.948	
176.000	-3.961	
176.100	-18.683	
176.200	-11.353	
176.300	-9.477	
176.400	-9.340	
176.500	-14.024	
176.600	-2.346	
176.700	-10.530	
176.800	-23.559	
176.900	-14.258	
177.000	-4.841	
177.100	-9.842	
177.200	-5.177	
177.300	-2.470	
177.400	-5.855	
177.500	-7.301	
177.600	-7.652	
177.700	-20.184	
177.800	-17.059	
177.900	-8.726	
178.000	0.202	
178.100	-12.416	
178.200	-8.032	
178.300	-20.771	
178.400	-31.208	
178.500	-23.835	
178.600	-9.435	
178.700	-14.593	
178.800	-8.784	
178.900	-17.990	
179.000	-12.520	
179.100	-11.478	
179.200	-4.875	
179.300	-14.176	
179.400	-8.652	
179.500	4.143	
179.600	-21.868	
179.700	-2.739	
179.800	-7.171	
179.900	11.648	
180.000	23.612	
180.100	5.512	
180.200	32.598	
180.300	19.661	
180.400	31.661	
180.500	20.474	
180.600	37.351	
180.700	40.450	
180.800	33.105	
180.900	39.103	
181.000	47.602	
181.100	40.838	
181.200	35.933	
181.300	46.351	
181.400	39.247	
181.500	44.973	
181.600	51.282	
181.700	44.165	
181.800	37.615	
181.900	42.024	
182.000	37.788	
182.100	37.168	
182.200	31.755	
182.300	59.617	
182.400	28.427	
182.500	35.107	
182.600	32.460	
182.700	37.882	
182.800	40.524	
182.900	22.395	
183.000	35.730	
183.100	30.868	
183.200	36.444	
183.300	26.613	
183.400	21.451	
183.500	30.947	
183.600	34.536	
183.700	27.451	
183.800	31.754	
183.900	36.278	
184.000	34.209	
184.100	26.073	
184.200	31.283	
184.300	31.163	
184.400	27.919	
184.500	26.000	
184.600	36.756	
184.700	31.550	
184.800	12.949	
184.900	31.215	
185.000	37.397	
185.100	42.881	
185.200	43.003	
185.300	42.166	
185.400	27.898	
185.500	38.182	
185.600	31.933	
185.700	33.420	
185.800	49.743	
185.900	33.174	
186.000	33.181	
186.100	50.490	
186.200	38.843	
186.300	41.724	
186.400	34.374	
186.500	37.768	
186.600	37.107	
186.700	36.961	
186.800	29.701	
186.900	47.627	
187.000	45.566	
187.100	45.321	
187.200	43.886	
187.300	41.134	
187.400	39.224	
187.500	45.984	
187.600	43.625	
187.700	46.275	
187.800	58.792	
187.900	48.431	
188.000	39.056	
188.100	51.436	
188.200	49.301	
188.300	47.386	
188.400	42.769	
188.500	46.314	
188.600	59.599	
188.700	52.879	
188.800	40.842	
188.900	36.580	
189.000	54.304	
189.100	60.818	
189.200	54.270	
189.300	35.970	
189.400	55.900	
189.500	68.788	
189.600	41.518	
189.700	38.970	
189.800	65.196	
189.900	56.424	
190.000	55.569	
190.100	67.060	
190.200	53.126	
190.300	58.299	
190.400	56.253	
190.500	45.171	
190.600	73.235	
190.700	56.571	
190.800	50.334	
190.900	55.911	
191.000	53.818	
191.100	54.987	
191.200	51.423	
191.300	44.466	
191.400	62.155	
191.500	46.846	
191.600	66.505	
191.700	56.417	
191.800	41.704	
191.900	44.299	
192.000	54.912	
192.100	54.141	
192.200	54.633	
192.300	50.954	
192.400	51.714	
192.500	35.499	
192.600	55.936	
192.700	66.877	
192.800	54.533	
192.900	45.341	
193.000	54.241	
193.100	52.610	
193.200	55.066	
193.300	52.241	
193.400	45.565	
193.500	58.874	
193.600	52.957	
193.700	66.086	
193.800	52.710	
193.900	35.784	
194.000	61.160	
194.100	55.472	
194.200	56.458	
194.300	60.509	
194.400	58.700	
194.500	52.902	
194.600	49.099	
194.700	57.799	
194.800	60.013	
194.900	63.032	
195.000	46.144	
195.100	53.128	
195.200	48.113	
195.300	58.274	
195.400	63.758	
195.500	61.286	
195.600	50.812	
195.700	58.333	
195.800	68.696	
195.900	49.838	
196.000	68.018	
196.100	50.130	
196.200	55.837	
196.300	53.487	
196.400	63.691	
196.500	50.177	
196.600	59.936	
196.700	50.885	
196.800	68.861	
196.900	70.320	
197.000	59.625	
197.100	53.205	
197.200	49.945	
197.300	49.564	
197.400	54.337	
197.500	45.410	
197.600	53.250	
197.700	52.779	
197.800	56.727	
197.900	55.900	
198.000	65.681	
198.100	54.166	
198.200	54.821	
198.300	54.132	
198.400	68.926	
198.500	58.197	
198.600	67.224	
198.700	58.180	
198.800	53.744	
198.900	51.345	
199.000	42.958	
199.100	57.271	
199.200	64.844	
199.300	41.881	
199.400	54.104	
199.500	66.735	
199.600	64.109	
199.700	52.000	
199.800	49.099	
199.900	45.553	
200.000	41.454	
200.100	71.110	
200.200	52.032	
200.300	54.366	
200.400	57.966	
200.500	59.578	
200.600	55.597	
200.700	46.232	
200.800	68.201	
200.900	53.015	
201.000	62.098	
201.100	59.622	
201.200	50.686	
201.300	60.837	
201.400	41.076	
201.500	47.616	
201.600	51.268	
201.700	65.254	
201.800	40.411	
201.900	49.947	
202.000	57.354	
202.100	54.113	
202.200	57.955	
202.300	62.021	
202.400	62.006	
202.500	61.744	
202.600	65.709	
202.700	38.476	
202.800	46.402	
202.900	51.748	
203.000	76.530	
203.100	62.742	
203.200	46.298	
203.300	64.413	
203.400	58.124	
203.500	58.383	
203.600	60.451	
203.700	66.253	
203.800	53.079	
203.900	55.882	
204.000	66.998	
204.100	55.250	
204.200	70.265	
204.300	49.530	
204.400	51.367	
204.500	69.932	
204.600	56.337	
204.700	54.254	
204.800	39.607	
204.900	55.609	
205.000	60.599	
205.100	81.174	
205.200	61.762	
205.300	62.939	
205.400	63.126	
205.500	67.926	
205.600	54.222	
205.700	56.919	
205.800	48.401	
205.900	49.674	
206.000	69.921	
206.100	67.632	
206.200	59.522	
206.300	54.106	
206.400	57.112	
206.500	62.736	
206.600	62.415	
206.700	63.614	
206.800	51.057	
206.900	49.600	
207.000	61.825	
207.100	57.125	
207.200	56.726	
207.300	58.605	
207.400	65.456	
207.500	51.588	
207.600	62.955	
207.700	60.128	
207.800	52.382	
207.900	68.270	
208.000	68.441	
208.100	53.248	
208.200	58.501	
208.300	46.052	
208.400	56.470	
208.500	57.846	
208.600	60.408	
208.700	54.697	
208.800	62.173	
208.900	56.071	
209.000	41.844	
209.100	62.691	
209.200	72.919	
209.300	65.103	
209.400	62.364	
209.500	53.694	
209.600	54.921	
209.700	54.161	
209.800	55.478	
209.900	74.144	
210.000	59.125	
210.100	56.999	
210.200	50.414	
210.300	59.537	
210.400	62.499	
210.500	63.081	
210.600	64.058	
210.700	66.681	
210.800	51.653	
210.900	60.960	
211.000	49.514	
211.100	59.567	
211.200	62.804	
211.300	67.034	
211.400	58.851	
211.500	63.349	
211.600	55.626	
211.700	61.591	
211.800	48.318	
211.900	55.594	
212.000	55.605	
212.100	46.591	
212.200	68.719	
212.300	67.637	
212.400	60.094	
212.500	64.397	
212.600	60.270	
212.700	55.034	
212.800	65.807	
212.900	59.255	
213.000	50.126	
213.100	64.089	
213.200	62.058	
213.300	62.089	
213.400	60.086	
213.500	59.845	
213.600	64.715	
213.700	53.704	
213.800	62.183	
213.900	62.984	
214.000	60.641	
214.100	60.708	
214.200	57.492	
214.300	47.261	
214.400	67.620	
214.500	61.982	
214.600	62.016	
214.700	59.614	
214.800	60.902	
214.900	71.978	
215.000	61.076	
215.100	62.332	
215.200	47.569	
215.300	51.693	
215.400	65.081	
215.500	57.749	
215.600	63.676	
215.700	66.649	
215.800	48.359	
215.900	63.000	
216.000	56.478	
216.100	57.460	
216.200	73.518	
216.300	73.353	
216.400	61.923	
216.500	47.075	
216.600	58.010	
216.700	53.164	
216.800	68.599	
216.900	49.940	
217.000	58.888	
217.100	67.033	
217.200	53.162	
217.300	56.585	
217.400	47.933	
217.500	61.658	
217.600	70.457	
217.700	66.583	
217.800	39.397	
217.900	64.821	
218.000	60.174	
218.100	51.010	
218.200	42.697	
218.300	62.079	
218.400	60.811	
218.500	57.880	
218.600	66.649	
218.700	66.917	
218.800	53.025	
218.900	61.985	
219.000	63.111	
219.100	35.827	
219.200	65.920	
219.300	76.176	
219.400	59.197	
219.500	65.922	
219.600	50.296	
219.700	68.373	
219.800	44.098	
219.900	50.277	
220.000	65.860	
220.100	61.072	
220.200	58.595	
220.300	63.028	
220.400	49.760	
220.500	59.476	
220.600	70.719	
220.700	51.975	
220.800	72.345	
220.900	47.961	
221.000	62.900	
221.100	56.582	
221.200	58.543	
221.300	62.388	
221.400	67.453	
221.500	63.015	
221.600	51.829	
221.700	64.394	
221.800	51.567	
221.900	60.362	
222.000	55.022	
222.100	66.066	
222.200	64.230	
222.300	58.355	
222.400	74.134	
222.500	59.936	
222.600	62.728	
222.700	57.120	
222.800	48.954	
222.900	56.154	
223.000	75.638	
223.100	61.271	
223.200	62.082	
223.300	59.822	
223.400	39.954	
223.500	51.389	
223.600	62.452	
223.700	63.645	
223.800	61.120	
223.900	67.479	
224.000	48.086	
224.100	60.697	
224.200	70.053	
224.300	73.433	
224.400	55.566	
224.500	55.936	
224.600	71.886	
224.700	65.199	
224.800	61.524	
224.900	52.332	
225.000	66.630	
225.100	52.893	
225.200	80.772	
225.300	65.331	
225.400	64.197	
225.500	55.518	
225.600	54.300	
225.700	75.570	
225.800	73.716	
225.900	46.326	
226.000	64.453	
226.100	53.331	
226.200	61.704	
226.300	61.274	
226.400	53.725	
226.500	62.410	
226.600	72.943	
226.700	44.556	
226.800	61.335	
226.900	53.043	
227.000	64.615	
227.100	49.672	
227.200	55.150	
227.300	66.503	
227.400	61.290	
227.500	63.628	
227.600	64.194	
227.700	59.524	
227.800	59.378	
227.900	63.282	
228.000	63.024	
228.100	63.539	
228.200	44.344	
228.300	79.226	
228.400	60.732	
228.500	56.223	
228.600	70.488	
228.700	53.470	
228.800	73.927	
228.900	71.019	
229.000	41.429	
229.100	58.786	
229.200	61.540	
229.300	55.883	
229.400	59.533	
229.500	64.859	
229.600	60.695	
229.700	71.122	
229.800	55.792	
229.900	55.447	
230.000	54.854	
230.100	57.591	
230.200	60.173	
230.300	66.982	
230.400	41.385	
230.500	57.266	
230.600	62.563	
230.700	51.312	
230.800	61.518	
230.900	69.466	
231.000	60.097	
231.100	41.448	
231.200	58.043	
231.300	64.015	
231.400	54.682	
231.500	48.949	
231.600	60.411	
231.700	42.344	
231.800	58.687	
231.900	65.418	
232.000	58.887	
232.100	60.240	
232.200	53.393	
232.300	68.521	
232.400	49.486	
232.500	61.488	
232.600	53.313	
232.700	43.285	
232.800	60.770	
232.900	56.736	
233.000	54.549	
233.100	46.645	
233.200	72.217	
233.300	62.903	
233.400	54.262	
233.500	62.889	
233.600	48.222	
233.700	56.698	
233.800	57.096	
233.900	55.459	
234.000	54.609	
234.100	54.888	
234.200	52.386	
234.300	65.048	
234.400	54.088	
234.500	59.204	
234.600	41.977	
234.700	59.250	
234.800	56.105	
234.900	49.787	
235.000	50.941	
235.100	48.157	
235.200	47.971	
235.300	56.191	
235.400	53.850	
235.500	64.267	
235.600	54.673	
235.700	63.361	
235.800	45.987	
235.900	51.120	
236.000	60.047	
236.100	56.172	
236.200	49.274	
236.300	45.325	
236.400	63.544	
236.500	72.004	
236.600	51.296	
236.700	69.456	
236.800	67.478	
236.900	41.921	
237.000	55.882	
237.100	48.711	
237.200	56.794	
237.300	51.615	
237.400	58.877	
237.500	56.836	
237.600	64.824	
237.700	44.841	
237.800	48.565	
237.900	56.845	
238.000	50.702	
238.100	61.437	
238.200	64.908	
238.300	53.759	
238.400	60.095	
238.500	46.500	
238.600	61.402	
238.700	63.039	
238.800	49.538	
238.900	43.692	
239.000	48.630	
239.100	56.819	
239.200	71.138	
239.300	53.525	
239.400	47.197	
239.500	41.727	
239.600	75.887	
239.700	59.125	
239.800	38.843	
239.900	50.373	
240.000	43.157	
240.100	47.835	
240.200	32.864	
240.300	28.281	
240.400	20.251	
240.500	13.285	
240.600	-0.020	
240.700	-14.626	
240.800	-13.207	
240.900	-22.162	
241.000	-24.321	
241.100	-26.628	
241.200	-41.238	
241.300	-41.201	
241.400	-40.186	
241.500	-43.058	
241.600	-49.872	
241.700	-58.942	
241.800	-62.083	
241.900	-49.751	
242.000	-51.164	
242.100	-59.613	
242.200	-67.557	
242.300	-71.611	
242.400	-64.331	
242.500	-65.669	
242.600	-79.321	
242.700	-67.025	
242.800	-68.889	
242.900	-72.959	
243.000	-61.121	
243.100	-85.135	
243.200	-77.236	
243.300	-60.441	
243.400	-67.741	
243.500	-69.136	
243.600	-78.149	
243.700	-65.781	
243.800	-69.842	
243.900	-59.638	
244.000	-68.114	
244.100	-66.188	
244.200	-73.777	
244.300	-58.694	
244.400	-73.826	
244.500	-52.601	
244.600	-59.318	
244.700	-64.363	
244.800	-61.487	
244.900	-67.550	
245.000	-54.001	
245.100	-79.167	
245.200	-48.396	
245.300	-49.562	
245.400	-52.664	
245.500	-60.573	
245.600	-57.409	
245.700	-61.312	
245.800	-72.666	
245.900	-57.288	
246.000	-52.050	
246.100	-59.865	
246.200	-59.914	
246.300	-52.429	
246.400	-53.482	
246.500	-58.419	
246.600	-44.534	
246.700	-51.093	
246.800	-48.292	
246.900	-66.136	
247.000	-51.973	
247.100	-59.922	
247.200	-56.534	
247.300	-46.988	
247.400	-61.752	
247.500	-48.456	
247.600	-41.166	
247.700	-53.954	
247.800	-58.962	
247.900	-61.506	
248.000	-47.846	
248.100	-49.066	
248.200	-63.395	
248.300	-55.388	
248.400	-58.688	
248.500	-38.355	
248.600	-55.698	
248.700	-63.021	
248.800	-67.333	
248.900	-55.441	
249.000	-51.477	
249.100	-72.227	
249.200	-47.863	
249.300	-47.429	
249.400	-45.164	
249.500	-56.480	
249.600	-46.129	
249.700	-53.767	
249.800	-64.616	
249.900	-55.944	
250.000	-40.788	
250.100	-55.766	
250.200	-52.621	
250.300	-43.012	
250.400	-55.743	
250.500	-60.634	
250.600	-61.842	
250.700	-48.286	
250.800	-45.632	
250.900	-61.742	
251.000	-51.934	
251.100	-47.638	
251.200	-48.620	
251.300	-45.727	
251.400	-39.797	
251.500	-61.368	
251.600	-42.037	
251.700	-45.813	
251.800	-45.610	
251.900	-48.343	
252.000	-46.192	
252.100	-61.786	
252.200	-45.148	
252.300	-44.752	
252.400	-50.677	
252.500	-57.673	
252.600	-53.937	
252.700	-51.624	
252.800	-39.782	
252.900	-49.603	
253.000	-59.510	
253.100	-41.791	
253.200	-55.160	
253.300	-52.036	
253.400	-59.037	
253.500	-49.777	
253.600	-60.912	
253.700	-42.715	
253.800	-37.582	
253.900	-38.333	
254.000	-37.450	
254.100	-52.510	
254.200	-51.832	
254.300	-42.886	
254.400	-49.544	
254.500	-53.276	
254.600	-45.100	
254.700	-47.480	
254.800	-47.055	
254.900	-53.361	
255.000	-38.676	
255.100	-46.119	
255.200	-50.585	
255.300	-40.447	
255.400	-53.832	
255.500	-46.594	
255.600	-56.505	
255.700	-40.149	
255.800	-33.255	
255.900	-48.132	
256.000	-38.742	
256.100	-37.230	
256.200	-37.813	
256.300	-48.246	
256.400	-33.068	
256.500	-58.705	
256.600	-43.498	
256.700	-41.418	
256.800	-48.704	
256.900	-44.498	
257.000	-34.313	
257.100	-45.203	
257.200	-43.757	
257.300	-44.513	
257.400	-46.474	
257.500	-40.326	
257.600	-22.495	
257.700	-26.178	
257.800	-38.466	
257.900	-46.081	
258.000	-40.776	
258.100	-39.282	
258.200	-39.008	
258.300	-57.804	
258.400	-36.886	
258.500	-32.807	
258.600	-27.767	
258.700	-41.539	
258.800	-50.209	
258.900	-39.816	
259.000	-40.084	
259.100	-42.448	
259.200	-46.780	
259.300	-35.449	
259.400	-38.392	
259.500	-36.879	
259.600	-36.858	
259.700	-34.001	
259.800	-43.970	
259.900	-38.067	
260.000	-36.965	
260.100	-33.470	
260.200	-49.426	
260.300	-37.534	
260.400	-53.274	
260.500	-39.130	
260.600	-32.834	
260.700	-54.502	
260.800	-46.946	
260.900	-43.809	
261.000	-35.009	
261.100	-36.446	
261.200	-33.018	
261.300	-25.441	
261.400	-36.682	
261.500	-45.398	
261.600	-32.260	
261.700	-52.182	
261.800	-34.096	
261.900	-31.664	
262.000	-41.804	
262.100	-48.112	
262.200	-24.892	
262.300	-35.114	
262.400	-23.331	
262.500	-27.775	
262.600	-37.874	
262.700	-35.609	
262.800	-35.323	
262.900	-41.830	
263.000	-37.625	
263.100	-30.540	
263.200	-30.237	
263.300	-35.410	
263.400	-37.737	
263.500	-26.316	
263.600	-44.356	
263.700	-28.511	
263.800	-37.577	
263.900	-27.015	
264.000	-45.341	
264.100	-26.631	
264.200	-10.673	
264.300	-30.459	
264.400	-28.163	
264.500	-32.799	
264.600	-31.661	
264.700	-35.736	
264.800	-35.695	
264.900	-31.936	
265.000	-42.137	
265.100	-23.926	
265.200	-21.999	
265.300	-37.574	
265.400	-31.970	
265.500	-11.187	
265.600	-39.416	
265.700	-17.697	
265.800	-26.010	
265.900	-31.179	
266.000	-29.495	
266.100	-29.889	
266.200	-32.321	
266.300	-32.919	
266.400	-29.328	
266.500	-31.284	
266.600	-34.147	
266.700	-32.181	
266.800	-29.745	
266.900	-31.439	
267.000	-39.974	
267.100	-26.429	
267.200	-44.154	
267.300	-32.897	
267.400	-41.363	
267.500	-29.368	
267.600	-34.587	
267.700	-21.447	
267.800	-36.104	
267.900	-35.999	
268.000	-24.468	
268.100	-26.522	
268.200	-18.123	
268.300	-31.239	
268.400	-37.682	
268.500	-22.553	
268.600	-28.937	
268.700	-35.497	
268.800	-26.869	
268.900	-30.129	
269.000	-10.894	
269.100	-36.938	
269.200	-24.640	
269.300	-26.845	
269.400	-30.642	
269.500	-25.952	
269.600	-30.297	
269.700	-33.555	
269.800	-49.312	
269.900	-31.128	
270.000	-12.766	
270.100	-21.862	
270.200	-32.313	
270.300	-23.206	
270.400	-32.597	
270.500	-19.530	
270.600	-22.849	
270.700	-32.071	
270.800	-16.035	
270.900	-24.043	
271.000	-19.647	
271.100	-32.198	
271.200	-12.021	
271.300	-24.269	
271.400	-29.914	
271.500	-19.597	
271.600	-25.064	
271.700	-11.661	
271.800	-28.936	
271.900	-24.401	
272.000	-37.681	
272.100	-26.958	
272.200	-18.462	
272.300	-33.881	
272.400	-24.727	
272.500	-39.072	
272.600	-26.438	
272.700	-19.932	
272.800	-24.064	
272.900	-23.374	
273.000	-31.517	
273.100	-17.898	
273.200	-22.701	
273.300	-25.629	
273.400	-15.782	
273.500	-42.208	
273.600	-11.158	
273.700	-24.458	
273.800	-19.912	
273.900	-25.554	
274.000	-20.313	
274.100	-31.533	
274.200	-29.147	
274.300	-18.900	
274.400	-26.388	
274.500	-29.054	
274.600	-23.609	
274.700	-14.626	
274.800	-24.005	
274.900	-16.230	
275.000	-24.765	
275.100	-28.980	
275.200	-24.739	
275.300	-19.372	
275.400	-23.532	
275.500	-25.186	
275.600	-22.031	
275.700	-24.979	
275.800	-25.081	
275.900	-31.449	
276.000	-32.606	
276.100	-23.436	
276.200	-7.687	
276.300	-20.709	
276.400	-27.637	
276.500	-28.046	
276.600	-15.088	
276.700	-24.192	
276.800	-22.768	
276.900	-18.460	
277.000	-28.212	
277.100	-37.721	
277.200	-19.681	
277.300	-4.052	
277.400	-29.658	
277.500	-24.872	
277.600	-34.521	
277.700	-19.819	
277.800	-23.079	
277.900	-24.512	
278.000	-20.092	
278.100	-16.566	
278.200	-14.908	
278.300	-29.624	
278.400	-26.183	
278.500	-24.631	
278.600	-19.031	
278.700	-27.564	
278.800	-27.535	
278.900	-27.085	
279.000	-20.242	
279.100	-14.959	
279.200	-22.719	
279.300	-37.445	
279.400	-34.154	
279.500	-17.926	
279.600	-23.036	
279.700	-30.029	
279.800	-22.466	
279.900	-20.963	
280.000	-14.977	
280.100	-29.740	
280.200	-25.544	
280.300	-17.396	
280.400	-18.641	
280.500	-9.755	
280.600	-28.352	
280.700	-41.088	
280.800	-24.193	
280.900	-14.160	
281.000	-35.849	
281.100	-15.121	
281.200	-19.266	
281.300	-10.545	
281.400	-20.001	
281.500	-29.163	
281.600	-7.721	
281.700	-20.198	
281.800	-14.338	
281.900	-17.526	
282.000	-28.477	
282.100	-25.510	
282.200	-9.654	
282.300	-25.712	
282.400	-12.390	
282.500	-19.694	
282.600	-7.841	
282.700	-16.613	
282.800	-16.400	
282.900	-27.462	
283.000	-26.833	
283.100	-15.114	
283.200	-23.347	
283.300	-46.386	
283.400	-3.229	
283.500	-19.955	
283.600	-22.868	
283.700	-19.221	
283.800	-17.641	
283.900	-8.612	
284.000	-17.510	
284.100	-23.661	
284.200	-24.909	
284.300	-23.391	
284.400	-15.855	
284.500	-26.440	
284.600	-29.815	
284.700	-16.405	
284.800	-22.471	
284.900	-18.007	
285.000	-23.275	
285.100	-21.712	
285.200	-12.359	
285.300	-19.471	
285.400	-24.812	
285.500	-19.915	
285.600	-17.943	
285.700	-14.778	
285.800	-13.783	
285.900	-17.611	
286.000	-12.412	
286.100	-21.655	
286.200	-23.745	
286.300	-22.086	
286.400	-22.006	
286.500	-13.222	
286.600	-28.993	
286.700	-30.089	
286.800	-9.102	
286.900	-24.676	
287.000	-19.491	
287.100	-8.965	
287.200	-21.871	
287.300	-15.207	
287.400	-15.878	
287.500	-16.520	
287.600	-25.389	
287.700	-25.865	
287.800	-28.664	
287.900	-22.872	
288.000	-19.710	
288.100	-18.125	
288.200	-14.146	
288.300	-21.564	
288.400	-16.288	
288.500	-15.238	
288.600	-22.897	
288.700	-17.380	
288.800	-8.251	
288.900	-30.842	
289.000	-25.003	
289.100	-4.182	
289.200	-27.727	
289.300	-22.355	
289.400	-20.286	
289.500	-10.880	
289.600	-29.143	
289.700	-15.331	
289.800	-18.829	
289.900	-22.534	
290.000	-17.295	
290.100	-6.141	
290.200	-29.586	
290.300	-14.470	
290.400	-16.949	
290.500	-9.561	
290.600	-11.665	
290.700	-24.953	
290.800	-15.296	
290.900	-30.549	
291.000	-12.497	
291.100	-12.592	
291.200	-17.446	
291.300	-22.440	
291.400	-23.204	
291.500	-26.967	
291.600	-8.905	
291.700	-11.815	
291.800	-17.279	
291.900	-16.284	
292.000	-19.522	
292.100	-25.551	
292.200	-13.590	
292.300	-21.529	
292.400	-10.865	
292.500	-25.694	
292.600	-13.585	
292.700	-10.645	
292.800	-21.535	
292.900	-32.083	
293.000	7.036	
293.100	-15.526	
293.200	-24.550	
293.300	-36.538	
293.400	-1.902	
293.500	-4.541	
293.600	-28.939	
293.700	-13.794	
293.800	-6.330	
293.900	-15.218	
294.000	-24.805	
294.100	-20.147	
294.200	-12.482	
294.300	-33.139	
294.400	-27.904	
294.500	-0.793	
294.600	-19.202	
294.700	-10.771	
294.800	-23.071	
294.900	-16.308	
295.000	-16.031	
295.100	-21.757	
295.200	-10.552	
295.300	-29.425	
295.400	-24.431	
295.500	-18.603	
295.600	-10.912	
295.700	-30.011	
295.800	-20.462	
295.900	-3.081	
296.000	-12.765	
296.100	-3.976	
296.200	-18.245	
296.300	-35.103	
296.400	-22.115	
296.500	-20.620	
296.600	-20.000	
296.700	-17.235	
296.800	-5.558	
296.900	-20.370	
297.000	-6.031	
297.100	-22.449	
297.200	-18.987	
297.300	-19.448	
297.400	-17.155	
297.500	-20.665	
297.600	-22.859	
297.700	-35.791	
297.800	-8.311	
297.900	-6.151	
298.000	-12.575	
298.100	-23.838	
298.200	-15.077	
298.300	-12.814	
298.400	-18.265	
298.500	-11.609	
298.600	-23.785	
298.700	-17.187	
298.800	-12.048	
298.900	-22.583	
299.000	-24.072	
299.100	-15.870	
299.200	-20.819	
299.300	-13.554	
299.400	-20.757	
299.500	-12.746	
299.600	-13.374	
299.700	-11.970	
299.800	-13.794	
299.900	-6.203	
300.000	-35.590	
300.100	-24.042	
300.200	-4.736	
300.300	-22.012	
300.400	-4.488	
300.500	-23.416	
300.600	-11.526	
300.700	-8.804	
300.800	-17.215	
300.900	-26.801	
301.000	-17.621	
301.100	-5.313	
301.200	-15.785	
301.300	-18.322	
301.400	-27.308	
301.500	-8.841	
301.600	-8.124	
301.700	-15.457	
301.800	-14.644	
301.900	-13.826	
302.000	-8.289	
302.100	-29.046	
302.200	-16.817	
302.300	-0.100	
302.400	-33.111	
302.500	-24.886	
302.600	-11.365	
302.700	-12.489	
302.800	-21.727	
302.900	-20.636	
303.000	-14.434	
303.100	-22.019	
303.200	-15.376	
303.300	-15.149	
303.400	-26.335	
303.500	-5.701	
303.600	-20.800	
303.700	-16.776	
303.800	-5.560	
303.900	-18.878	
304.000	-1.103	
304.100	-19.363	
304.200	-22.334	
304.300	-22.334	
304.400	-18.624	
304.500	-6.482	
304.600	-3.999	
304.700	-19.139	
304.800	-15.033	
304.900	-9.088	
305.000	-1.575	
305.100	-9.318	
305.200	-17.194	
305.300	-21.496	
305.400	-12.373	
305.500	-21.386	
305.600	-5.805	
305.700	-15.943	
305.800	-19.007	
305.900	-15.455	
306.000	-11.950	
306.100	-2.835	
306.200	-24.660	
306.300	-18.298	
306.400	-20.877	
306.500	-22.907	
306.600	-20.588	
306.700	-2.040	
306.800	-23.065	
306.900	-7.878	
307.000	-19.311	
307.100	-17.726	
307.200	-7.083	
307.300	5.743	
307.400	-22.723	
307.500	-16.229	
307.600	-12.187	
307.700	-4.090	
307.800	-7.941	
307.900	-10.304	
308.000	-14.323	
308.100	-20.789	
308.200	-12.586	
308.300	-3.568	
308.400	-17.808	
308.500	-13.896	
308.600	-7.994	
308.700	-17.243	
308.800	-5.893	
308.900	-16.433	
309.000	-14.328	
309.100	-28.811	
309.200	-21.509	
309.300	-19.762	
309.400	-18.726	
309.500	-18.980	
309.600	-19.941	
309.700	-19.990	
309.800	-14.771	
309.900	-4.831	
310.000	-12.857	
310.100	-17.679	
310.200	-5.744	
310.300	-14.502	
310.400	-25.366	
310.500	-5.194	
310.600	-30.550	
310.700	-0.242	
310.800	-15.721	
310.900	-9.061	
311.000	-20.149	
311.100	-19.108	
311.200	-6.846	
311.300	-19.244	
311.400	-26.211	
311.500	-21.686	
311.600	-9.542	
311.700	-9.475	
311.800	-18.213	
311.900	-16.832	
312.000	-5.750	
312.100	-8.605	
312.200	-12.960	
312.300	-12.195	
312.400	-18.789	
312.500	-10.602	
312.600	-15.604	
312.700	-33.358	
312.800	1.745	
312.900	-22.250	
313.000	-6.153	
313.100	-13.062	
313.200	-16.795	
313.300	-22.952	
313.400	-26.141	
313.500	-15.110	
313.600	-20.723	
313.700	-21.470	
313.800	-9.966	
313.900	-6.729	
314.000	-13.595	
314.100	-10.925	
314.200	-11.400	
314.300	-2.725	
314.400	-8.130	
314.500	-24.759	
314.600	-17.895	
314.700	-16.955	
314.800	-21.906	
314.900	-6.136	
315.000	-5.079	
315.100	2.332	
315.200	-11.448	
315.300	-13.715	
315.400	3.352	
315.500	-24.928	
315.600	-12.858	
315.700	-20.669	
315.800	-10.533	
315.900	-17.744	
316.000	-7.088	
316.100	-8.846	
316.200	-12.348	
316.300	-15.357	
316.400	-5.823	
316.500	-3.699	
316.600	-21.845	
316.700	-13.686	
316.800	-11.603	
316.900	-19.674	
317.000	-13.508	
317.100	-10.961	
317.200	-10.864	
317.300	-18.326	
317.400	-4.165	
317.500	-11.327	
317.600	-14.808	
317.700	-11.953	
317.800	-20.770	
317.900	-20.430	
318.000	-5.789	
318.100	-12.711	
318.200	-29.773	
318.300	2.103	
318.400	-7.617	
318.500	-18.224	
318.600	-0.330	
318.700	-22.997	
318.800	-8.496	
318.900	-9.995	
319.000	-10.771	
319.100	-16.157	
319.200	-17.884	
319.300	-12.163	
319.400	-17.312	
319.500	-14.476	
319.600	-22.555	
319.700	-8.627	
319.800	-35.984	
319.900	-11.475	
320.000	-6.108	
320.100	-16.054	
320.200	-35.540	
320.300	-13.576	
320.400	-14.621	
320.500	-19.404	
320.600	-13.654	
320.700	-12.607	
320.800	-24.496	
320.900	-13.520	
321.000	-10.419	
321.100	-11.129	
321.200	-30.714	
321.300	4.803	
321.400	-25.081	
321.500	-12.378	
321.600	-17.199	
321.700	-19.695	
321.800	-13.724	
321.900	-17.202	
322.000	-5.858	
322.100	-8.972	
322.200	-15.472	
322.300	2.677	
322.400	-14.601	
322.500	-9.706	
322.600	-12.419	
322.700	-14.314	
322.800	-14.440	
322.900	-21.897	
323.000	-8.741	
323.100	-9.629	
323.200	-24.979	
323.300	-3.923	
323.400	-17.628	
323.500	-5.526	
323.600	-14.842	
323.700	-9.444	
323.800	-14.344	
323.900	-18.349	
324.000	-11.983	
324.100	-17.349	
324.200	-13.289	
324.300	-4.531	
324.400	-6.286	
324.500	-15.288	
324.600	-12.239	
324.700	-29.591	
324.800	-23.183	
324.900	-1.025	
325.000	-16.789	
325.100	-6.569	
325.200	-24.548	
325.300	-9.568	
325.400	-14.274	
325.500	-13.542	
325.600	-13.642	
325.700	-4.815	
325.800	-36.581	
325.900	-13.431	
326.000	-10.494	
326.100	-9.345	
326.200	-7.410	
326.300	-15.511	
326.400	-8.190	
326.500	-5.528	
326.600	-14.833	
326.700	-21.061	
326.800	-9.258	
326.900	-1.181	
327.000	0.446	
327.100	-4.131	
327.200	-9.994	
327.300	-28.942	
327.400	-13.992	
327.500	-14.263	
327.600	-3.323	
327.700	-9.426	
327.800	-2.631	
327.900	-15.414	
328.000	2.690	
328.100	-5.346	
328.200	-11.231	
328.300	-14.731	
328.400	-3.504	
328.500	-2.642	
328.600	-19.572	
328.700	-23.084	
328.800	-7.105	
328.900	-1.816	
329.000	-16.421	
329.100	-16.435	
329.200	-12.412	
329.300	-11.879	
329.400	-14.364	
329.500	-3.209	
329.600	-16.590	
329.700	-19.742	
329.800	-9.780	
329.900	6.730	
330.000	10.598	
330.100	19.195	
330.200	23.304	
330.300	14.791	
330.400	30.262	
330.500	43.733	
330.600	29.895	
330.700	56.142	
330.800	38.603	
330.900	45.230	
331.000	37.735	
331.100	26.210	
331.200	46.662	
331.300	42.706	
331.400	34.181	
331.500	36.613	
331.600	41.753	
331.700	48.379	
331.800	43.431	
331.900	43.114	
332.000	38.870	
332.100	37.938	
332.200	43.798	
332.300	26.819	
332.400	42.812	
332.500	21.221	
332.600	42.550	
332.700	33.823	
332.800	38.277	
332.900	24.978	
333.000	24.298	
333.100	28.875	
333.200	30.700	
333.300	39.239	
333.400	38.445	
333.500	32.959	
333.600	21.933	
333.700	27.932	
333.800	31.448	
333.900	34.206	
334.000	31.509	
334.100	30.004	
334.200	22.037	
334.300	35.155	
334.400	33.461	
334.500	10.337	
334.600	26.970	
334.700	37.985	
334.800	34.235	
334.900	39.249	
335.000	26.522	
335.100	27.975	
335.200	39.005	
335.300	43.354	
335.400	26.625	
335.500	31.057	
335.600	38.182	
335.700	36.324	
335.800	40.965	
335.900	45.545	
336.000	27.699	
336.100	41.826	
336.200	51.639	
336.300	44.345	
336.400	38.416	
336.500	41.126	
336.600	44.963	
336.700	38.234	
336.800	41.611	
336.900	42.309	
337.000	59.250	
337.100	32.174	
337.200	44.039	
337.300	43.552	
337.400	53.910	
337.500	49.181	
337.600	51.558	
337.700	46.510	
337.800	47.704	
337.900	53.151	
338.000	29.489	
338.100	33.251	
338.200	56.026	
338.300	46.545	
338.400	42.601	
338.500	51.911	
338.600	53.268	
338.700	54.250	
338.800	56.442	
338.900	43.405	
339.000	39.658	
339.100	49.936	
339.200	45.063	
339.300	57.996	
339.400	48.494	
339.500	41.098	
339.600	47.347	
339.700	56.420	
339.800	49.469	
339.900	48.549	
340.000	51.291	
340.100	54.081	
340.200	53.686	
340.300	37.390	
340.400	60.737	
340.500	57.482	
340.600	45.153	
340.700	62.433	
340.800	53.554	
340.900	49.413	
341.000	59.356	
341.100	51.977	
341.200	55.775	
341.300	58.294	
341.400	66.861	
341.500	41.068	
341.600	64.808	
341.700	58.310	
341.800	51.740	
341.900	48.649	
342.000	56.908	
342.100	67.454	
342.200	67.410	
342.300	45.478	
342.400	47.312	
342.500	58.005	
342.600	50.852	
342.700	71.578	
342.800	50.343	
342.900	46.692	
343.000	58.865	
343.100	60.334	
343.200	59.704	
343.300	67.923	
343.400	48.849	
343.500	59.839	
343.600	55.189	
343.700	50.565	
343.800	64.006	
343.900	60.570	
344.000	62.224	
344.100	60.268	
344.200	55.633	
344.300	53.248	
344.400	60.777	
344.500	48.611	
344.600	58.362	
344.700	54.821	
344.800	52.388	
344.900	56.492	
345.000	62.178	
345.100	49.901	
345.200	48.220	
345.300	59.326	
345.400	51.975	
345.500	62.408	
345.600	61.632	
345.700	69.315	
345.800	51.174	
345.900	59.521	
346.000	61.259	
346.100	69.335	
346.200	51.023	
346.300	55.622	
346.400	68.522	
346.500	56.172	
346.600	61.815	
346.700	45.005	
346.800	65.691	
346.900	49.268	
347.000	60.431	
347.100	61.498	
347.200	55.406	
347.300	57.855	
347.400	51.443	
347.500	56.637	
347.600	56.559	
347.700	57.149	
347.800	68.622	
347.900	54.304	
348.000	55.819	
348.100	53.935	
348.200	47.120	
348.300	49.211	
348.400	70.213	
348.500	53.756	
348.600	60.955	
348.700	50.107	
348.800	58.772	
348.900	48.127	
349.000	59.152	
349.100	72.378	
349.200	48.417	
349.300	47.058	
349.400	63.007	
349.500	55.639	
349.600	62.916	
349.700	52.411	
349.800	65.370	
349.900	58.180	
350.000	39.024	
350.100	56.187	
350.200	65.730	
350.300	48.629	
350.400	65.384	
350.500	44.832	
350.600	71.013	
350.700	48.320	
350.800	50.320	
350.900	56.505	
351.000	63.743	
351.100	56.615	
351.200	66.416	
351.300	64.969	
351.400	60.468	
351.500	51.903	
351.600	59.427	
351.700	47.962	
351.800	71.093	
351.900	65.244	
352.000	51.929	
352.100	57.961	
352.200	59.935	
352.300	51.779	
352.400	49.841	
352.500	55.093	
352.600	51.872	
352.700	69.126	
352.800	53.484	
352.900	55.467	
353.000	62.231	
353.100	52.976	
353.200	62.227	
353.300	62.560	
353.400	49.790	
353.500	62.758	
353.600	65.215	
353.700	52.286	
353.800	57.490	
353.900	61.199	
354.000	56.350	
354.100	56.635	
354.200	43.618	
354.300	60.415	
354.400	70.117	
354.500	61.081	
354.600	55.511	
354.700	62.464	
354.800	61.747	
354.900	61.669	
355.000	58.021	
355.100	58.006	
355.200	58.121	
355.300	65.575	
355.400	55.375	
355.500	57.883	
355.600	53.448	
355.700	52.982	
355.800	65.584	
355.900	57.667	
356.000	69.871	
356.100	63.724	
356.200	69.618	
356.300	53.909	
356.400	59.392	
356.500	55.908	
356.600	56.064	
356.700	47.665	
356.800	77.194	
356.900	68.509	
357.000	55.619	
357.100	63.877	
357.200	55.694	
357.300	67.341	
357.400	69.063	
357.500	53.889	
357.600	65.933	
357.700	47.384	
357.800	64.243	
357.900	48.248	
358.000	54.524	
358.100	72.783	
358.200	61.662	
358.300	52.712	
358.400	58.841	
358.500	47.437	
358.600	62.113	
358.700	69.599	
358.800	55.271	
358.900	60.564	
359.000	61.894	
359.100	63.513	
359.200	56.215	
359.300	71.720	
359.400	63.391	
359.500	65.238	
359.600	58.376	
359.700	60.986	
359.800	61.510	
359.900	62.014	
360.000	60.147	
360.100	48.909	
360.200	64.751	
360.300	69.531	
360.400	51.397	
360.500	53.953	
360.600	68.198	
360.700	65.325	
360.800	55.731	
360.900	55.678	
361.000	57.026	
361.100	59.052	
361.200	58.663	
361.300	68.457	
361.400	56.469	
361.500	62.354	
361.600	51.242	
361.700	62.296	
361.800	54.471	
361.900	60.103	
362.000	42.165	
362.100	62.888	
362.200	54.374	
362.300	72.043	
362.400	47.840	
362.500	62.447	
362.600	53.901	
362.700	73.872	
362.800	58.108	
362.900	60.544	
363.000	67.427	
363.100	70.912	
363.200	60.020	
363.300	65.432	
363.400	59.296	
363.500	53.762	
363.600	65.106	
363.700	64.511	
363.800	67.181	
363.900	57.247	
364.000	71.309	
364.100	57.390	
364.200	58.621	
364.300	66.736	
364.400	62.458	
364.500	59.942	
364.600	59.461	
364.700	63.210	
364.800	61.186	
364.900	60.411	
365.000	47.623	
365.100	57.914	
365.200	53.917	
365.300	56.570	
365.400	62.374	
365.500	63.573	
365.600	48.841	
365.700	60.201	
365.800	69.791	
365.900	52.589	
366.000	55.195	
366.100	63.875	
366.200	66.854	
366.300	66.717	
366.400	61.443	
366.500	51.283	
366.600	73.248	
366.700	71.089	
366.800	62.173	
366.900	55.967	
367.000	55.722	
367.100	58.898	
367.200	50.412	
367.300	66.970	
367.400	65.062	
367.500	64.633	
367.600	58.497	
367.700	55.158	
367.800	63.679	
367.900	54.700	
368.000	62.704	
368.100	59.894	
368.200	64.938	
368.300	68.486	
368.400	71.681	
368.500	60.424	
368.600	47.893	
368.700	73.546	
368.800	70.403	
368.900	55.235	
369.000	58.112	
369.100	58.938	
369.200	69.166	
369.300	63.103	
369.400	70.596	
369.500	52.975	
369.600	69.035	
369.700	66.208	
369.800	59.533	
369.900	55.885	
370.000	60.594	
370.100	63.576	
370.200	63.658	
370.300	55.837	
370.400	60.689	
370.500	56.119	
370.600	66.465	
370.700	61.066	
370.800	67.029	
370.900	63.476	
371.000	48.888	
371.100	62.712	
371.200	75.060	
371.300	58.542	
371.400	57.224	
371.500	64.905	
371.600	59.019	
371.700	62.808	
371.800	54.578	
371.900	58.377	
372.000	57.938	
372.100	60.347	
372.200	62.461	
372.300	43.595	
372.400	52.809	
372.500	66.565	
372.600	56.395	
372.700	77.695	
372.800	53.467	
372.900	52.464	
373.000	60.279	
373.100	67.583	
373.200	45.842	
373.300	61.916	
373.400	63.513	
373.500	69.669	
373.600	56.908	
373.700	46.167	
373.800	61.952	
373.900	63.007	
374.000	61.580	
374.100	64.072	
374.200	52.134	
374.300	65.937	
374.400	69.995	
374.500	53.362	
374.600	56.676	
374.700	66.379	
374.800	68.766	
374.900	68.149	
375.000	59.670	
375.100	59.603	
375.200	65.981	
375.300	54.880	
375.400	64.074	
375.500	61.292	
375.600	77.505	
375.700	61.199	
375.800	61.178	
375.900	54.475	
376.000	55.741	
376.100	64.102	
376.200	50.050	
376.300	56.192	
376.400	53.471	
376.500	55.984	
376.600	52.503	
376.700	67.943	
376.800	49.771	
376.900	56.888	
377.000	66.722	
377.100	55.804	
377.200	56.876	
377.300	68.231	
377.400	66.614	
377.500	64.098	
377.600	60.830	
377.700	61.580	
377.800	57.871	
377.900	57.729	
378.000	65.577	
378.100	54.320	
378.200	56.112	
378.300	76.846	
378.400	50.928	
378.500	63.025	
378.600	63.420	
378.700	47.289	
378.800	49.410	
378.900	77.218	
379.000	48.438	
379.100	59.828	
379.200	66.683	
379.300	60.270	
379.400	64.675	
379.500	56.786	
379.600	47.351	
379.700	76.526	
379.800	72.086	
379.900	65.173	
380.000	61.637	
380.100	58.284	
380.200	51.651	
380.300	50.399	
380.400	66.523	
380.500	58.078	
380.600	62.383	
380.700	47.857	
380.800	55.277	
380.900	62.903	
381.000	47.262	
381.100	55.949	
381.200	54.935	
381.300	47.887	
381.400	50.258	
381.500	60.770	
381.600	61.437	
381.700	46.733	
381.800	58.826	
381.900	50.618	
382.000	54.973	
382.100	65.807	
382.200	58.861	
382.300	58.176	
382.400	52.014	
382.500	48.058	
382.600	61.983	
382.700	48.229	
382.800	63.863	
382.900	53.971	
383.000	61.647	
383.100	46.700	
383.200	56.297	
383.300	44.698	
383.400	55.242	
383.500	49.384	
383.600	70.335	
383.700	48.833	
383.800	58.154	
383.900	50.513	
384.000	69.372	
384.100	52.346	
384.200	44.878	
384.300	50.705	
384.400	60.122	
384.500	55.126	
384.600	61.550	
384.700	58.027	
384.800	54.039	
384.900	66.827	
385.000	66.426	
385.100	55.841	
385.200	62.240	
385.300	55.727	
385.400	53.647	
385.500	63.337	
385.600	40.177	
385.700	49.259	
385.800	52.829	
385.900	61.118	
386.000	53.503	
386.100	51.814	
386.200	54.399	
386.300	65.769	
386.400	66.129	
386.500	59.814	
386.600	38.253	
386.700	55.913	
386.800	54.726	
386.900	71.105	
387.000	53.165	
387.100	68.651	
387.200	49.504	
387.300	55.236	
387.400	44.838	
387.500	50.643	
387.600	58.778	
387.700	61.498	
387.800	48.356	
387.900	52.305	
388.000	63.253	
388.100	53.755	
388.200	56.448	
388.300	45.275	
388.400	65.370	
388.500	53.404	
388.600	62.094	
388.700	51.540	
388.800	50.931	
388.900	54.271	
389.000	60.861	
389.100	60.856	
389.200	62.619	
389.300	59.822	
389.400	49.701	
389.500	53.449	
389.600	61.626	
389.700	39.164	
389.800	56.936	
389.900	48.585	
390.000	50.248	
390.100	35.282	
390.200	43.179	
390.300	19.021	
390.400	11.503	
390.500	1.976	
390.600	20.186	
390.700	-4.917	
390.800	-1.328	
390.900	-12.926	
391.000	-26.162	
391.100	-35.797	
391.200	-39.265	
391.300	-38.052	
391.400	-55.498	
391.500	-59.906	
391.600	-49.679	
391.700	-59.301	
391.800	-56.785	
391.900	-57.136	
392.000	-60.636	
392.100	-66.905	
392.200	-55.637	
392.300	-70.359	
392.400	-70.674	
392.500	-64.883	
392.600	-69.854	
392.700	-56.824	
392.800	-80.118	
392.900	-83.752	
393.000	-71.069	
393.100	-63.573	
393.200	-86.700	
393.300	-65.919	
393.400	-56.391	
393.500	-69.958	
393.600	-66.166	
393.700	-71.515	
393.800	-74.401	
393.900	-78.477	
394.000	-52.352	
394.100	-69.018	
394.200	-66.453	
394.300	-62.755	
394.400	-69.275	
394.500	-60.491	
394.600	-61.833	
394.700	-60.071	
394.800	-60.534	
394.900	-67.578	
395.000	-61.548	
395.100	-66.891	
395.200	-69.076	
395.300	-61.733	
395.400	-48.878	
395.500	-63.264	
395.600	-57.570	
395.700	-60.414	
395.800	-58.449	
395.900	-61.051	
396.000	-62.129	
396.100	-66.843	
396.200	-50.271	
396.300	-54.976	
396.400	-71.800	
396.500	-53.320	
396.600	-56.661	
396.700	-62.653	
396.800	-57.063	
396.900	-76.773	
397.000	-55.702	
397.100	-46.989	
397.200	-59.212	
397.300	-65.919	
397.400	-60.856	
397.500	-60.709	
397.600	-55.680	
397.700	-51.686	
397.800	-56.890	
397.900	-65.717	
398.000	-51.430	
398.100	-61.744	
398.200	-69.026	
398.300	-53.493	
398.400	-54.863	
398.500	-58.280	
398.600	-60.872	
398.700	-62.136	
398.800	-50.785	
398.900	-54.304	
399.000	-55.738	
399.100	-51.493	
399.200	-65.902	
399.300	-66.915	
399.400	-64.594	
399.500	-57.588	
399.600	-68.666	
399.700	-51.166	
399.800	-63.449	
399.900	-56.798	
400.000	-50.927	
400.100	-47.391	
400.200	-60.383	
400.300	-50.815	
400.400	-60.806	
400.500	-58.091	
400.600	-45.707	
400.700	-63.052	
400.800	-57.775	
400.900	-55.423	
401.000	-64.135	
401.100	-51.019	
401.200	-50.416	
401.300	-62.649	
401.400	-47.348	
401.500	-58.697	
401.600	-43.109	
401.700	-53.549	
401.800	-55.821	
401.900	-56.143	
402.000	-60.004	
402.100	-63.710	
402.200	-45.673	
402.300	-56.819	
402.400	-70.970	
402.500	-46.403	
402.600	-49.583	
402.700	-62.239	
402.800	-57.652	
402.900	-60.104	
403.000	-52.768	
403.100	-56.792	
403.200	-50.321	
403.300	-48.462	
403.400	-46.865	
403.500	-54.872	
403.600	-61.186	
403.700	-51.182	
403.800	-48.178	
403.900	-44.706	
404.000	-50.933	
404.100	-51.424	
404.200	-51.184	
404.300	-49.855	
404.400	-47.856	
404.500	-35.368	
404.600	-52.829	
404.700	-57.534	
404.800	-41.958	
404.900	-53.868	
405.000	-51.164	
405.100	-49.844	
405.200	-46.636	
405.300	-55.174	
405.400	-43.812	
405.500	-57.008	
405.600	-50.123	
405.700	-50.049	
405.800	-43.270	
405.900	-47.996	
406.000	-45.302	
406.100	-52.534	
406.200	-39.375	
406.300	-45.055	
406.400	-44.777	
406.500	-42.485	
406.600	-51.390	
406.700	-49.789	
406.800	-52.160	
406.900	-40.156	
407.000	-63.370	
407.100	-53.596	
407.200	-34.321	
407.300	-46.235	
407.400	-38.026	
407.500	-41.983	
407.600	-34.642	
407.700	-46.716	
407.800	-49.705	
407.900	-42.336	
408.000	-41.718	
408.100	-43.063	
408.200	-45.777	
408.300	-34.902	
408.400	-50.439	
408.500	-41.665	
408.600	-45.829	
408.700	-46.719	
408.800	-47.285	
408.900	-35.549	
409.000	-52.081	
409.100	-45.964	
409.200	-39.443	
409.300	-40.215	
409.400	-52.925	
409.500	-47.796	
409.600	-48.323	
409.700	-30.480	
409.800	-55.232	
409.900	-39.729	
410.000	-42.275	
410.100	-40.756	
410.200	-40.556	
410.300	-30.129	
410.400	-36.643	
410.500	-41.482	
410.600	-48.907	
410.700	-46.223	
410.800	-39.922	
410.900	-44.072	
411.000	-40.125	
411.100	-34.611	
411.200	-51.744	
411.300	-35.094	
411.400	-38.827	
411.500	-43.834	
411.600	-48.080	
411.700	-37.936	
411.800	-33.041	
411.900	-34.452	
412.000	-31.461	
412.100	-43.153	
412.200	-26.707	
412.300	-37.084	
412.400	-41.453	
412.500	-37.316	
412.600	-37.041	
412.700	-31.624	
412.800	-47.406	
412.900	-35.018	
413.000	-44.516	
413.100	-37.960	
413.200	-26.820	
413.300	-42.346	
413.400	-29.327	
413.500	-40.097	
413.600	-14.994	
413.700	-32.155	
413.800	-45.968	
413.900	-42.136	
414.000	-27.586	
414.100	-50.671	
414.200	-36.635	
414.300	-26.303	
414.400	-28.475	
414.500	-41.917	
414.600	-34.227	
414.700	-52.035	
414.800	-28.337	
414.900	-26.507	
415.000	-35.547	
415.100	-37.834	
415.200	-52.309	
415.300	-31.091	
415.400	-30.287	
415.500	-26.963	
415.600	-44.529	
415.700	-37.127	
415.800	-32.751	
415.900	-35.146	
416.000	-39.901	
416.100	-44.361	
416.200	-32.168	
416.300	-31.272	
416.400	-27.590	
416.500	-32.642	
416.600	-33.900	
416.700	-44.799	
416.800	-33.111	
416.900	-29.700	
417.000	-31.720	
417.100	-26.375	
417.200	-35.263	
417.300	-28.815	
417.400	-30.577	
417.500	-33.811	
417.600	-37.284	
417.700	-16.395	
417.800	-34.894	
417.900	-39.953	
418.000	-15.710	
418.100	-22.217	
418.200	-36.763	
418.300	-36.765	
418.400	-29.765	
418.500	-23.123	
418.600	-30.581	
418.700	-21.845	
418.800	-27.520	
418.900	-37.566	
419.000	-37.890	
419.100	-17.171	
419.200	-20.238	
419.300	-28.955	
419.400	-19.044	
419.500	-17.618	
419.600	-21.555	
419.700	-24.301	
419.800	-25.197	
419.900	-27.633	
420.000	-30.202	
420.100	-33.527	
420.200	-34.303	
420.300	-32.828	
420.400	-22.380	
420.500	-35.313	
420.600	-13.927	
420.700	-36.168	
420.800	-17.799	
420.900	-26.397	
421.000	-21.911	
421.100	-14.617	
421.200	-40.216	
421.300	-14.938	
421.400	-21.726	
421.500	-22.074	
421.600	-30.030	
421.700	-41.102	
421.800	-26.232	
421.900	-45.452	
422.000	-25.198	
422.100	-16.185	
422.200	-32.305	
422.300	-30.499	
422.400	-36.304	
422.500	-31.997	
422.600	-24.739	
422.700	-25.615	
422.800	-32.736	
422.900	-27.320	
423.000	-31.748	
423.100	-26.548	
423.200	-28.565	
423.300	-20.019	
423.400	-13.844	
423.500	-29.032	
423.600	-25.594	
423.700	-23.592	
423.800	-31.684	
423.900	-17.737	
424.000	-24.419	
424.100	-27.147	
424.200	-36.983	
424.300	-32.021	
424.400	-13.918	
424.500	-34.627	
424.600	-17.629	
424.700	-25.434	
424.800	-30.340	
424.900	-30.148	
425.000	-17.105	
425.100	-19.018	
425.200	-34.550	
425.300	-20.533	
425.400	-29.373	
425.500	-19.616	
425.600	-9.394	
425.700	-8.740	
425.800	-19.779	
425.900	-33.803	
426.000	-35.938	
426.100	-24.917	
426.200	-25.385	
426.300	-20.479	
426.400	-34.459	
426.500	-8.964	
426.600	-27.237	
426.700	-25.641	
426.800	-28.845	
426.900	-19.567	
427.000	-20.436	
427.100	-22.738	
427.200	-30.866	
427.300	-14.827	
427.400	-15.161	
427.500	-22.612	
427.600	-15.406	
427.700	-19.412	
427.800	-31.639	
427.900	-33.985	
428.000	-17.951	
428.100	-7.898	
428.200	-28.219	
428.300	-20.790	
428.400	-21.513	
428.500	-25.748	
428.600	-28.882	
428.700	-28.289	
428.800	-24.074	
428.900	-18.592	
429.000	-25.917	
429.100	-24.501	
429.200	-26.809	
429.300	-30.238	
429.400	-25.672	
429.500	-22.184	
429.600	-16.682	
429.700	-29.840	
429.800	-10.486	
429.900	-24.837	
430.000	-17.031	
430.100	-8.143	
430.200	-22.936	
430.300	-21.708	
430.400	-22.453	
430.500	-10.885	
430.600	-12.125	
430.700	-27.762	
430.800	-38.879	
430.900	-26.115	
431.000	-32.661	
431.100	-4.991	
431.200	-18.657	
431.300	-25.213	
431.400	-30.755	
431.500	-9.070	
431.600	-28.632	
431.700	-21.614	
431.800	-11.244	
431.900	-37.793	
432.000	-18.497	
432.100	-10.264	
432.200	-31.370	
432.300	-29.763	
432.400	-19.673	
432.500	-23.031	
432.600	-8.077	
432.700	-24.076	
432.800	-41.137	
432.900	-8.434	
433.000	-23.989	
433.100	-18.522	
433.200	-22.887	
433.300	-8.618	
433.400	-32.309	
433.500	-32.023	
433.600	-14.779	
433.700	-15.607	
433.800	-10.948	
433.900	-11.086	
434.000	-21.203	
434.100	-42.472	
434.200	-25.509	
434.300	-10.273	
434.400	5.227	
434.500	-42.657	
434.600	-11.197	
434.700	-22.292	
434.800	-21.498	
434.900	-15.391	
435.000	-3.801	
435.100	-23.261	
435.200	-24.312	
435.300	-28.098	
435.400	-29.467	
435.500	-17.711	
435.600	-15.954	
435.700	-24.255	
435.800	-26.582	
435.900	-19.687	
436.000	-15.603	
436.100	-30.793	
436.200	-37.660	
436.300	-13.150	
436.400	-20.185	
436.500	-23.146	
436.600	-20.670	
436.700	-24.415	
436.800	-11.789	
436.900	-19.156	
437.000	-17.399	
437.100	-16.247	
437.200	-16.976	
437.300	-21.496	
437.400	-13.532	
437.500	-21.325	
437.600	-31.870	
437.700	-19.523	
437.800	-24.312	
437.900	-13.223	
438.000	-19.345	
438.100	-18.227	
438.200	-9.159	
438.300	-26.690	
438.400	-3.579	
438.500	-27.096	
438.600	-26.720	
438.700	-18.023	
438.800	-9.885	
438.900	-21.315	
439.000	-26.691	
439.100	-24.644	
439.200	-14.091	
439.300	-15.463	
439.400	-15.795	
439.500	-15.944	
439.600	-8.936	
439.700	-9.303	
439.800	-19.163	
439.900	-35.119	
440.000	-18.687	
440.100	-12.260	
440.200	-11.397	
440.300	-29.364	
440.400	-19.911	
440.500	-17.061	
440.600	-15.151	
440.700	-26.730	
440.800	-18.519	
440.900	-30.062	
441.000	-10.949	
441.100	-19.624	
441.200	-22.339	
441.300	-18.340	
441.400	-4.961	
441.500	-22.375	
441.600	-23.800	
441.700	-29.475	
441.800	-7.947	
441.900	-17.337	
442.000	-15.673	
442.100	-26.601	
442.200	-9.410	
442.300	-16.556	
442.400	-23.753	
442.500	-17.747	
442.600	-25.712	
442.700	-23.800	
442.800	-15.345	
442.900	-25.775	
443.000	-23.063	
443.100	-15.061	
443.200	-16.005	
443.300	-33.977	
443.400	-9.330	
443.500	-22.399	
443.600	-13.202	
443.700	-15.050	
443.800	-15.230	
443.900	-7.980	
444.000	-17.592	
444.100	-20.949	
444.200	-15.947	
444.300	-16.128	
444.400	-20.520	
444.500	-15.843	
444.600	-30.664	
444.700	-18.153	
444.800	-11.206	
444.900	-10.038	
445.000	-17.821	
445.100	-17.192	
445.200	-15.009	
445.300	-24.470	
445.400	-10.548	
445.500	-16.967	
445.600	-27.120	
445.700	-20.091	
445.800	-7.468	
445.900	-18.819	
446.000	-18.579	
446.100	-20.362	
446.200	-7.388	
446.300	-24.158	
446.400	-24.965	
446.500	-20.781	
446.600	-25.095	
446.700	-15.072	
446.800	-17.721	
446.900	-15.601	
447.000	-10.968	
447.100	-31.274	
447.200	-23.050	
447.300	-22.555	
447.400	-10.978	
447.500	-24.876	
447.600	-4.377	
447.700	-14.617	
447.800	-27.184	
447.900	-21.567	
448.000	-6.646	
448.100	-25.609	
448.200	-23.771	
448.300	-22.728	
448.400	-14.152	
448.500	-6.373	
448.600	-20.274	
448.700	-10.150	
448.800	-23.065	
448.900	-14.389	
449.000	-10.426	
449.100	-17.966	
449.200	-23.958	
449.300	-19.236	
449.400	-11.047	
449.500	-31.512	
449.600	-28.139	
449.700	-18.541	
449.800	-16.989	
449.900	-12.455	
450.000	-12.728	
450.100	-15.852	
450.200	4.326	
450.300	-28.997	
450.400	-16.106	
450.500	-14.786	
450.600	-14.777	
450.700	-17.719	
450.800	-18.986	
450.900	-14.791	
451.000	-20.538	
451.100	-16.320	
451.200	-22.068	
451.300	-31.923	
451.400	-16.111	
451.500	-19.502	
451.600	-13.675	
451.700	-6.503	
451.800	-15.790	
451.900	-12.685	
452.000	-8.876	
452.100	-15.766	
452.200	-15.327	
452.300	-9.631	
452.400	-32.253	
452.500	-6.848	
452.600	-11.283	
452.700	-14.594	
452.800	-12.855	
452.900	-13.858	
453.000	-20.081	
453.100	-6.008	
453.200	-15.950	
453.300	-21.748	
453.400	-15.228	
453.500	-7.247	
453.600	-4.304	
453.700	-9.173	
453.800	-15.482	
453.900	-15.937	
454.000	-18.121	
454.100	-15.064	
454.200	-15.470	
454.300	-13.594	
454.400	-19.566	
454.500	-23.262	
454.600	-15.834	
454.700	-16.959	
454.800	-11.731	
454.900	-31.061	
455.000	1.318	
455.100	-15.428	
455.200	-25.300	
455.300	-9.192	
455.400	-26.141	
455.500	-19.862	
455.600	-15.068	
455.700	-6.555	
455.800	-8.870	
455.900	-21.892	
456.000	-23.957	
456.100	-22.176	
456.200	-21.766	
456.300	-16.044	
456.400	-18.747	
456.500	-7.440	
456.600	-6.247	
456.700	-23.496	
456.800	-15.929	
456.900	-10.713	
457.000	-7.987	
457.100	-15.522	
457.200	-26.461	
457.300	-1.415	
457.400	-10.557	
457.500	-9.514	
457.600	-19.074	
457.700	-23.621	
457.800	-26.687	
457.900	-16.855	
458.000	-15.341	
458.100	-16.370	
458.200	-19.304	
458.300	-7.064	
458.400	-23.738	
458.500	-22.703	
458.600	-10.912	
458.700	-2.429	
458.800	-20.220	
458.900	-18.443	
459.000	-19.474	
459.100	-11.405	
459.200	-22.151	
459.300	-16.093	
459.400	-9.044	
459.500	-21.257	
459.600	-5.269	
459.700	-23.503	
459.800	-26.788	
459.900	-28.908	
460.000	-8.550	
460.100	-10.903	
460.200	-20.596	
460.300	-16.164	
460.400	-26.324	
460.500	-1.817	
460.600	-19.111	
460.700	-10.481	
460.800	-13.235	
460.900	-21.349	
461.000	-13.235	
461.100	-22.586	
461.200	-9.719	
461.300	-22.154	
461.400	-6.995	
461.500	-10.728	
461.600	-15.528	
461.700	-24.484	
461.800	-3.375	
461.900	-17.448	
462.000	-6.521	
462.100	-27.897	
462.200	-16.007	
462.300	-2.026	
462.400	-22.558	
462.500	-3.083	
462.600	-14.721	
462.700	-17.205	
462.800	-4.885	
462.900	-12.950	
463.000	-11.269	
463.100	-23.515	
463.200	-10.848	
463.300	-11.018	
463.400	-12.305	
463.500	-21.540	
463.600	-13.546	
463.700	-8.415	
463.800	-17.371	
463.900	-21.604	
464.000	-15.236	
464.100	-17.335	
464.200	-17.965	
464.300	-6.982	
464.400	-27.979	
464.500	-5.797	
464.600	-13.233	
464.700	-13.824	
464.800	-20.079	
464.900	-0.010	
465.000	-18.525	
465.100	-23.207	
465.200	-14.299	
465.300	-18.853	
465.400	-13.809	
465.500	-12.099	
465.600	-16.885	
465.700	-16.520	
465.800	-25.928	
465.900	-12.385	
466.000	-24.989	
466.100	-15.789	
466.200	-21.037	
466.300	-9.743	
466.400	-21.797	
466.500	-10.717	
466.600	-19.351	
466.700	-23.284	
466.800	-9.963	
466.900	-14.570	
467.000	-17.414	
467.100	-7.522	
467.200	-24.167	
467.300	-22.341	
467.400	-13.124	
467.500	-9.537	
467.600	-19.776	
467.700	-14.703	
467.800	-22.747	
467.900	-9.459	
468.000	-9.143	
468.100	-17.789	
468.200	-14.313	
468.300	-9.570	
468.400	-14.115	
468.500	-19.720	
468.600	-19.403	
468.700	-14.959	
468.800	-8.186	
468.900	-23.797	
469.000	-6.234	
469.100	-12.013	
469.200	-18.457	
469.300	-17.519	
469.400	-3.376	
469.500	-11.481	
469.600	-16.342	
469.700	-11.005	
469.800	-19.664	
469.900	-6.575	
470.000	-27.284	
470.100	-11.077	
470.200	-15.351	
470.300	-14.811	
470.400	-12.533	
470.500	-17.113	
470.600	-20.760	
470.700	-26.841	
470.800	-20.970	
470.900	0.522	
471.000	-24.867	
471.100	-6.369	
471.200	-20.293	
471.300	-23.626	
471.400	-6.833	
471.500	-11.709	
471.600	-27.424	
471.700	-15.370	
471.800	-20.611	
471.900	-12.741	
472.000	-15.972	
472.100	-15.422	
472.200	-17.545	
472.300	-3.967	
472.400	-27.368	
472.500	-6.555	
472.600	-32.447	
472.700	-6.814	
472.800	-10.763	
472.900	-8.796	
473.000	-18.016	
473.100	-10.040	
473.200	-31.397	
473.300	-1.700	
473.400	-14.363	
473.500	-5.512	
473.600	-28.277	
473.700	-1.732	
473.800	-26.900	
473.900	0.831	
474.000	-4.927	
474.100	-25.145	
474.200	-14.878	
474.300	-20.278	
474.400	-17.211	
474.500	-1.828	
474.600	-17.122	
474.700	-7.348	
474.800	-25.376	
474.900	-1.271	
475.000	-22.739	
475.100	-4.106	
475.200	-2.741	
475.300	-17.216	
475.400	-15.457	
475.500	-7.369	
475.600	-15.575	
475.700	-20.124	
475.800	-4.781	
475.900	-18.277	
476.000	-17.666	
476.100	-0.698	
476.200	-19.011	
476.300	-15.613	
476.400	-1.885	
476.500	-17.692	
476.600	-12.463	
476.700	-17.157	
476.800	-4.421	
476.900	-19.811	
477.000	-12.855	
477.100	-2.502	
477.200	-17.962	
477.300	-13.933	
477.400	-10.597	
477.500	-19.050	
477.600	-11.030	
477.700	-14.011	
477.800	-24.424	
477.900	-11.145	
478.000	-7.718	
478.100	-12.228	
478.200	-1.663	
478.300	-8.795	
478.400	-6.914	
478.500	-17.306	
478.600	-14.980	
478.700	-14.894	
478.800	1.677	
478.900	-29.185	
479.000	-9.713	
479.100	-17.075	
479.200	-8.621	
479.300	-12.622	
479.400	-4.657	
479.500	-18.191	
479.600	-23.627	
479.700	-6.937	
479.800	-7.907	
479.900	1.381	
480.000	1.221	
480.100	10.473	
480.200	17.306	
480.300	33.520	
480.400	26.082	
480.500	31.302	
480.600	24.272	
480.700	42.179	
480.800	47.604	
480.900	28.927	
481.000	39.256	
481.100	46.791	
481.200	16.784	
481.300	46.612	
481.400	47.348	
481.500	36.876	
481.600	40.352	
481.700	52.952	
481.800	47.970	
481.900	35.081	
482.000	31.683	
482.100	29.961	
482.200	43.152	
482.300	36.337	
482.400	38.158	
482.500	25.143	
482.600	42.147	
482.700	31.569	
482.800	44.527	
482.900	39.361	
483.000	38.879	
483.100	29.937	
483.200	34.578	
483.300	34.557	
483.400	29.227	
483.500	29.116	
483.600	31.781	
483.700	28.958	
483.800	25.584	
483.900	29.817	
484.000	19.299	
484.100	21.355	
484.200	44.856	
484.300	31.676	
484.400	38.123	
484.500	26.090	
484.600	26.793	
484.700	27.044	
484.800	36.579	
484.900	31.059	
485.000	40.009	
485.100	39.339	
485.200	33.080	
485.300	37.015	
485.400	11.476	
485.500	47.478	
485.600	36.870	
485.700	40.324	
485.800	28.772	
485.900	44.934	
486.000	46.435	
486.100	35.441	
486.200	44.080	
486.300	50.491	
486.400	37.701	
486.500	30.464	
486.600	59.232	
486.700	33.337	
486.800	46.271	
486.900	44.752	
487.000	51.804	
487.100	40.069	
487.200	39.812	
487.300	40.119	
487.400	43.189	
487.500	52.269	
487.600	49.294	
487.700	31.749	
487.800	47.893	
487.900	39.160	
488.000	38.775	
488.100	53.687	
488.200	46.941	
488.300	48.118	
488.400	47.690	
488.500	63.318	
488.600	46.807	
488.700	46.739	
488.800	43.470	
488.900	46.435	
489.000	60.068	
489.100	43.309	
489.200	61.173	
489.300	58.176	
489.400	53.242	
489.500	49.771	
489.600	51.238	
489.700	54.838	
489.800	48.033	
489.900	52.194	
490.000	58.679	
490.100	56.666	
490.200	55.748	
490.300	58.595	
490.400	45.782	
490.500	57.674	
490.600	67.585	
490.700	53.601	
490.800	52.118	
490.900	46.911	
491.000	42.499	
491.100	48.327	
491.200	56.526	
491.300	56.368	
491.400	45.874	
491.500	48.817	
491.600	50.655	
491.700	78.448	
491.800	56.031	
491.900	60.933	
492.000	50.956	
492.100	59.972	
492.200	53.153	
492.300	60.064	
492.400	52.711	
492.500	52.980	
492.600	57.672	
492.700	58.253	
492.800	47.550	
492.900	56.948	
493.000	45.104	
493.100	56.798	
493.200	67.238	
493.300	66.703	
493.400	61.125	
493.500	59.352	
493.600	62.508	
493.700	55.211	
493.800	67.115	
493.900	52.822	
494.000	57.796	
494.100	63.766	
494.200	55.782	
494.300	46.801	
494.400	55.067	
494.500	56.329	
494.600	55.060	
494.700	54.937	
494.800	59.697	
494.900	54.401	
495.000	46.494	
495.100	66.703	
495.200	64.390	
495.300	48.371	
495.400	60.098	
495.500	50.636	
495.600	48.305	
495.700	54.248	
495.800	58.311	
495.900	58.068	
496.000	51.619	
496.100	52.974	
496.200	61.313	
496.300	59.378	
496.400	58.158	
496.500	53.479	
496.600	64.742	
496.700	54.477	
496.800	53.164	
496.900	57.422	
497.000	60.541	
497.100	72.759	
497.200	46.910	
497.300	63.552	
497.400	74.308	
497.500	49.501	
497.600	61.465	
497.700	56.617	
497.800	63.432	
497.900	47.958	
498.000	57.603	
498.100	58.766	
498.200	58.577	
498.300	58.782	
498.400	58.345	
498.500	63.564	
498.600	61.052	
498.700	59.308	
498.800	57.149	
498.900	65.891	
499.000	51.242	
499.100	50.408	
499.200	53.125	
499.300	35.633	
499.400	68.086	
499.500	59.296	
499.600	65.165	
499.700	66.062	
499.800	57.499	
499.900	66.449	
500.000	52.418	
500.100	65.655	
500.200	64.361	
500.300	54.368	
500.400	56.288	
500.500	64.133	
500.600	55.306	
500.700	55.223	
500.800	54.344	
500.900	69.341	
501.000	56.515	
501.100	64.614	
501.200	60.355	
501.300	59.992	
501.400	57.085	
501.500	45.437	
501.600	66.505	
501.700	59.094	
501.800	39.466	
501.900	67.787	
502.000	55.447	
502.100	59.169	
502.200	60.993	
502.300	60.222	
502.400	60.779	
502.500	53.562	
502.600	68.630	
502.700	61.401	
502.800	58.041	
502.900	70.148	
503.000	64.050	
503.100	53.893	
503.200	56.322	
503.300	53.558	
503.400	64.454	
503.500	60.249	
503.600	58.560	
503.700	68.101	
503.800	52.409	
503.900	71.670	
504.000	58.692	
504.100	46.414	
504.200	56.222	
504.300	66.458	
504.400	69.013	
504.500	55.416	
504.600	53.652	
504.700	57.469	
504.800	60.913	
504.900	58.740	
505.000	56.058	
505.100	62.929	
505.200	64.395	
505.300	61.174	
505.400	50.038	
505.500	62.738	
505.600	62.290	
505.700	62.472	
505.800	50.657	
505.900	55.133	
506.000	58.259	
506.100	46.882	
506.200	74.238	
506.300	65.838	
506.400	54.720	
506.500	58.316	
506.600	69.517	
506.700	65.465	
506.800	41.450	
506.900	55.085	
507.000	66.665	
507.100	73.644	
507.200	64.720	
507.300	61.559	
507.400	62.655	
507.500	62.260	
507.600	57.400	
507.700	62.559	
507.800	53.792	
507.900	60.204	
508.000	65.929	
508.100	72.606	
508.200	61.876	
508.300	64.416	
508.400	60.790	
508.500	69.303	
508.600	58.706	
508.700	63.153	
508.800	51.372	
508.900	50.372	
509.000	68.099	
509.100	51.471	
509.200	56.375	
509.300	69.602	
509.400	51.843	
509.500	77.475	
509.600	57.037	
509.700	59.712	
509.800	60.770	
509.900	52.740	
510.000	57.404	
510.100	72.772	
510.200	73.960	
510.300	55.737	
510.400	62.723	
510.500	66.010	
510.600	65.157	
510.700	63.194	
510.800	66.386	
510.900	45.460	
511.000	65.640	
511.100	61.794	
511.200	62.316	
511.300	54.056	
511.400	44.146	
511.500	62.799	
511.600	58.949	
511.700	65.628	
511.800	61.479	
511.900	68.210	
512.000	76.365	
512.100	74.491	
512.200	46.412	
512.300	58.081	
512.400	59.338	
512.500	70.897	
512.600	55.996	
512.700	56.129	
512.800	60.180	
512.900	68.356	
513.000	72.356	
513.100	63.115	
513.200	64.799	
513.300	66.312	
513.400	68.238	
513.500	64.745	
513.600	47.607	
513.700	71.032	
513.800	55.773	
513.900	73.659	
514.000	65.729	
514.100	66.355	
514.200	59.640	
514.300	54.736	
514.400	68.503	
514.500	74.707	
514.600	60.025	
514.700	68.245	
514.800	59.644	
514.900	72.232	
515.000	62.794	
515.100	62.294	
515.200	68.879	
515.300	61.270	
515.400	60.897	
515.500	65.280	
515.600	67.727	
515.700	66.002	
515.800	39.929	
515.900	71.389	
516.000	68.221	
516.100	71.954	
516.200	46.999	
516.300	68.883	
516.400	66.449	
516.500	63.489	
516.600	60.937	
516.700	61.862	
516.800	65.428	
516.900	52.480	
517.000	71.777	
517.100	54.865	
517.200	61.771	
517.300	59.326	
517.400	69.572	
517.500	62.149	
517.600	57.622	
517.700	65.779	
517.800	73.524	
517.900	56.199	
518.000	45.381	
518.100	59.444	
518.200	56.649	
518.300	67.280	
518.400	68.723	
518.500	65.758	
518.600	61.168	
518.700	66.907	
518.800	66.576	
518.900	50.066	
519.000	61.185	
519.100	65.572	
519.200	59.467	
519.300	52.016	
519.400	65.668	
519.500	50.834	
519.600	70.762	
519.700	61.081	
519.800	66.764	
519.900	49.207	
520.000	66.178	
520.100	44.249	
520.200	70.423	
520.300	57.776	
520.400	49.792	
520.500	57.954	
520.600	70.899	
520.700	63.557	
520.800	57.915	
520.900	63.188	
521.000	59.691	
521.100	66.558	
521.200	70.572	
521.300	66.758	
521.400	47.186	
521.500	48.513	
521.600	67.698	
521.700	60.198	
521.800	67.027	
521.900	58.248	
522.000	65.184	
522.100	75.084	
522.200	57.831	
522.300	54.434	
522.400	60.238	
522.500	69.130	
522.600	56.577	
522.700	72.418	
522.800	60.903	
522.900	52.614	
523.000	69.021	
523.100	60.601	
523.200	69.773	
523.300	56.177	
523.400	71.562	
523.500	51.419	
523.600	58.348	
523.700	54.502	
523.800	43.427	
523.900	71.158	
524.000	67.056	
524.100	63.224	
524.200	51.964	
524.300	48.979	
524.400	66.526	
524.500	58.291	
524.600	46.034	
524.700	51.532	
524.800	51.035	
524.900	60.637	
525.000	59.641	
525.100	56.619	
525.200	49.007	
525.300	71.992	
525.400	47.425	
525.500	61.486	
525.600	62.475	
525.700	61.233	
525.800	62.758	
525.900	55.198	
526.000	64.721	
526.100	66.230	
526.200	56.761	
526.300	53.652	
526.400	79.924	
526.500	60.039	
526.600	64.542	
526.700	55.266	
526.800	47.440	
526.900	68.379	
527.000	49.155	
527.100	64.185	
527.200	51.888	
527.300	65.756	
527.400	57.191	
527.500	57.791	
527.600	69.092	
527.700	54.912	
527.800	54.373	
527.900	62.376	
528.000	52.197	
528.100	49.977	
528.200	53.942	
528.300	62.004	
528.400	51.375	
528.500	54.959	
528.600	55.454	
528.700	61.657	
528.800	54.815	
528.900	51.692	
529.000	60.060	
529.100	63.342	
529.200	47.234	
529.300	70.739	
529.400	56.900	
529.500	51.924	
529.600	63.095	
529.700	48.485	
529.800	68.304	
529.900	71.866	
530.000	54.471	
530.100	64.055	
530.200	41.765	
530.300	64.386	
530.400	64.757	
530.500	44.771	
530.600	54.512	
530.700	52.223	
530.800	52.985	
530.900	62.438	
531.000	55.192	
531.100	63.138	
531.200	65.471	
531.300	59.876	
531.400	53.044	
531.500	54.573	
531.600	51.538	
531.700	54.401	
531.800	58.640	
531.900	39.529	
532.000	64.048	
532.100	57.631	
532.200	73.834	
532.300	44.834	
532.400	51.618	
532.500	56.227	
532.600	57.828	
532.700	60.473	
532.800	46.245	
532.900	48.564	
533.000	55.465	
533.100	53.289	
533.200	47.208	
533.300	63.863	
533.400	59.645	
533.500	63.179	
533.600	53.759	
533.700	57.254	
533.800	62.859	
533.900	54.557	
534.000	45.615	
534.100	56.075	
534.200	57.540	
534.300	60.082	
534.400	57.697	
534.500	66.105	
534.600	54.708	
534.700	58.311	
534.800	46.238	
534.900	53.961	
535.000	46.230	
535.100	48.863	
535.200	52.778	
535.300	78.545	
535.400	66.885	
535.500	43.898	
535.600	51.707	
535.700	49.766	
535.800	52.010	
535.900	63.577	
536.000	59.547	
536.100	40.407	
536.200	56.621	
536.300	53.242	
536.400	59.728	
536.500	38.496	
536.600	51.068	
536.700	75.268	
536.800	66.638	
536.900	36.689	
537.000	63.544	
537.100	57.575	
537.200	52.836	
537.300	43.506	
537.400	66.009	
537.500	48.336	
537.600	52.333	
537.700	50.764	
537.800	43.993	
537.900	53.575	
538.000	60.028	
538.100	60.477	
538.200	55.395	
538.300	52.254	
538.400	48.334	
538.500	64.884	
538.600	52.980	
538.700	59.249	
538.800	54.677	
538.900	49.957	
539.000	47.971	
539.100	54.070	
539.200	64.688	
539.300	47.428	
539.400	53.646	
539.500	52.008	
539.600	39.207	
539.700	54.929	
539.800	42.548	
539.900	42.618	
540.000	62.086	
540.100	37.676	
540.200	40.321	
540.300	31.650	
540.400	13.912	
540.500	8.836	
540.600	10.485	
540.700	-11.141	
540.800	-21.021	
540.900	-14.839	
541.000	-26.532	
541.100	-32.020	
541.200	-52.024	
541.300	-29.877	
541.400	-36.787	
541.500	-55.211	
541.600	-65.889	
541.700	-50.740	
541.800	-43.321	
541.900	-77.838	
542.000	-66.756	
542.100	-57.684	
542.200	-74.856	
542.300	-68.484	
542.400	-60.046	
542.500	-60.162	
542.600	-67.189	
542.700	-82.538	
542.800	-68.317	
542.900	-61.877	
543.000	-63.894	
543.100	-55.651	
543.200	-71.028	
543.300	-70.961	
543.400	-77.244	
543.500	-51.651	
543.600	-79.762	
543.700	-75.656	
543.800	-83.752	
543.900	-68.159	
544.000	-68.357	
544.100	-73.645	
544.200	-65.873	
544.300	-68.986	
544.400	-58.280	
544.500	-62.176	
544.600	-62.364	
544.700	-74.457	
544.800	-82.448	
544.900	-57.799	
545.000	-61.583	
545.100	-77.031	
545.200	-59.084	
545.300	-78.015	
545.400	-65.970	
545.500	-55.167	
545.600	-63.160	
545.700	-70.621	
545.800	-58.034	
545.900	-67.803	
546.000	-59.038	
546.100	-66.954	
546.200	-57.554	
546.300	-65.390	
546.400	-66.084	
546.500	-61.880	
546.600	-58.531	
546.700	-51.494	
546.800	-53.051	
546.900	-64.767	
547.000	-51.861	
547.100	-71.589	
547.200	-50.869	
547.300	-71.048	
547.400	-45.686	
547.500	-66.803	
547.600	-60.760	
547.700	-70.526	
547.800	-53.849	
547.900	-57.366	
548.000	-65.819	
548.100	-57.640	
548.200	-62.123	
548.300	-63.561	
548.400	-62.352	
548.500	-57.621	
548.600	-58.881	
548.700	-60.036	
548.800	-60.668	
548.900	-60.597	
549.000	-58.807	
549.100	-58.056	
549.200	-61.237	
549.300	-49.217	
549.400	-71.042	
549.500	-70.719	
549.600	-65.237	
549.700	-58.595	
549.800	-53.386	
549.900	-67.154	
550.000	-56.495	
550.100	-52.930	
550.200	-52.396	
550.300	-56.271	
550.400	-53.718	
550.500	-64.558	
550.600	-52.210	
550.700	-49.560	
550.800	-67.035	
550.900	-55.959	
551.000	-57.494	
551.100	-62.892	
551.200	-61.559	
551.300	-57.477	
551.400	-57.103	
551.500	-52.734	
551.600	-44.927	
551.700	-52.596	
551.800	-53.495	
551.900	-63.398	
552.000	-59.875	
552.100	-37.894	
552.200	-59.021	
552.300	-51.885	
552.400	-51.747	
552.500	-65.467	
552.600	-51.921	
552.700	-59.259	
552.800	-52.147	
552.900	-64.713	
553.000	-49.599	
553.100	-52.203	
553.200	-56.784	
553.300	-55.893	
553.400	-59.241	
553.500	-48.223	
553.600	-45.494	
553.700	-44.703	
553.800	-59.483	
553.900	-63.698	
554.000	-33.213	
554.100	-54.556	
554.200	-52.157	
554.300	-57.532	
554.400	-49.493	
554.500	-49.435	
554.600	-41.582	
554.700	-57.212	
554.800	-57.053	
554.900	-55.915	
555.000	-36.475	
555.100	-43.859	
555.200	-63.346	
555.300	-48.787	
555.400	-41.334	
555.500	-59.218	
555.600	-38.693	
555.700	-44.354	
555.800	-39.784	
555.900	-46.018	
556.000	-53.241	
556.100	-47.170	
556.200	-57.188	
556.300	-54.784	
556.400	-31.457	
556.500	-46.269	
556.600	-58.474	
556.700	-49.092	
556.800	-49.965	
556.900	-36.686	
557.000	-41.108	
557.100	-46.666	
557.200	-46.290	
557.300	-41.967	
557.400	-24.222	
557.500	-45.069	
557.600	-40.594	
557.700	-51.180	
557.800	-27.908	
557.900	-48.451	
558.000	-35.777	
558.100	-40.356	
558.200	-41.004	
558.300	-49.765	
558.400	-48.398	
558.500	-43.735	
558.600	-38.227	
558.700	-67.621	
558.800	-48.065	
558.900	-25.207	
559.000	-41.718	
559.100	-40.585	
559.200	-38.646	
559.300	-39.376	
559.400	-31.969	
559.500	-37.184	
559.600	-43.515	
559.700	-49.472	
559.800	-40.616	
559.900	-35.126	
560.000	-37.399	
560.100	-54.259	
560.200	-43.353	
560.300	-37.381	
560.400	-44.268	
560.500	-40.252	
560.600	-26.487	
560.700	-45.207	
560.800	-39.864	
560.900	-35.946	
561.000	-45.895	
561.100	-45.196	
561.200	-39.942	
561.300	-27.008	
561.400	-43.923	
561.500	-35.014	
561.600	-43.273	
561.700	-42.777	
561.800	-42.822	
561.900	-46.694	
562.000	-27.633	
562.100	-35.848	
562.200	-44.554	
562.300	-39.082	
562.400	-50.658	
562.500	-26.117	
562.600	-32.836	
562.700	-41.173	
562.800	-32.613	
562.900	-47.933	
563.000	-32.371	
563.100	-28.972	
563.200	-25.074	
563.300	-35.392	
563.400	-30.783	
563.500	-37.847	
563.600	-38.061	
563.700	-50.389	
563.800	-27.361	
563.900	-39.537	
564.000	-25.472	
564.100	-38.093	
564.200	-40.010	
564.300	-35.145	
564.400	-35.695	
564.500	-31.209	
564.600	-34.287	
564.700	-34.249	
564.800	-35.438	
564.900	-27.419	
565.000	-47.825	
565.100	-30.934	
565.200	-26.538	
565.300	-28.995	
565.400	-45.465	
565.500	-24.451	
565.600	-31.966	
565.700	-43.106	
565.800	-39.619	
565.900	-26.802	
566.000	-32.012	
566.100	-34.829	
566.200	-36.509	
566.300	-41.537	
566.400	-55.082	
566.500	-31.547	
566.600	-36.764	
566.700	-33.436	
566.800	-15.941	
566.900	-39.881	
567.000	-36.933	
567.100	-29.980	
567.200	-37.299	
567.300	-29.835	
567.400	-47.536	
567.500	-22.768	
567.600	-40.485	
567.700	-42.576	
567.800	-22.074	
567.900	-36.184	
568.000	-38.281	
568.100	-20.827	
568.200	-23.982	
568.300	-30.678	
568.400	-31.323	
568.500	-32.089	
568.600	-27.199	
568.700	-31.690	
568.800	-31.219	
568.900	-38.662	
569.000	-30.913	
569.100	-24.485	
569.200	-48.824	
569.300	-19.524	
569.400	-28.909	
569.500	-36.504	
569.600	-17.778	
569.700	-29.971	
569.800	-25.491	
569.900	-37.571	
570.000	-11.339	
570.100	-27.029	
570.200	-23.648	
570.300	-34.343	
570.400	-28.307	
570.500	-29.135	
570.600	-22.666	
570.700	-12.166	
570.800	-41.943	
570.900	-18.720	
571.000	-29.687	
571.100	-38.546	
571.200	-18.274	
571.300	-20.264	
571.400	-31.966	
571.500	-19.465	
571.600	-18.038	
571.700	-20.954	
571.800	-29.481	
571.900	-34.158	
572.000	-32.205	
572.100	-29.649	
572.200	-31.063	
572.300	-28.998	
572.400	-14.921	
572.500	-24.060	
572.600	-32.502	
572.700	-34.703	
572.800	-43.968	
572.900	-14.000	
573.000	-20.807	
573.100	-32.003	
573.200	-29.141	
573.300	-41.474	
573.400	-19.719	
573.500	-39.591	
573.600	-20.753	
573.700	-18.428	
573.800	-34.362	
573.900	-40.770	
574.000	-32.352	
574.100	-18.836	
574.200	-31.142	
574.300	-15.712	
574.400	-28.532	
574.500	-28.750	
574.600	-30.057	
574.700	-17.113	
574.800	-25.822	
574.900	-32.034	
575.000	-24.080	
575.100	-31.396	
575.200	-37.702	
575.300	-16.147	
575.400	-15.789	
575.500	-36.080	
575.600	-20.212	
575.700	-22.266	
575.800	-14.016	
575.900	-30.921	
576.000	-30.422	
576.100	-35.902	
576.200	-19.236	
576.300	-26.428	
576.400	-33.813	
576.500	-32.713	
576.600	-25.283	
576.700	-19.780	
576.800	-33.007	
576.900	-25.410	
577.000	-23.735	
577.100	-6.704	
577.200	-24.998	
577.300	-31.349	
577.400	-17.558	
577.500	-21.502	
577.600	-36.580	
577.700	-26.124	
577.800	-35.641	
577.900	-24.600	
578.000	-14.955	
578.100	-25.385	
578.200	-24.272	
578.300	-15.894	
578.400	-32.447	
578.500	-20.663	
578.600	-25.314	
578.700	-27.753	
578.800	-39.884	
578.900	-13.512	
579.000	-25.503	
579.100	-32.402	
579.200	-36.834	
579.300	-31.165	
579.400	-2.447	
579.500	-32.496	
579.600	-27.768	
579.700	-21.008	
579.800	-11.860	
579.900	-28.368	
580.000	-17.881	
580.100	-21.167	
580.200	-31.025	
580.300	-34.104	
580.400	-13.702	
580.500	-11.260	
580.600	-20.794	
580.700	-23.291	
580.800	-15.898	
580.900	-27.789	
581.000	-23.676	
581.100	-17.460	
581.200	-29.448	
581.300	-19.301	
581.400	-2.600	
581.500	-24.735	
581.600	-23.725	
581.700	-13.356	
581.800	-29.910	
581.900	-23.893	
582.000	-21.221	
582.100	-33.510	
582.200	-30.472	
582.300	-20.106	
582.400	-20.260	
582.500	-42.566	
582.600	-16.814	
582.700	-29.794	
582.800	-18.302	
582.900	-24.846	
583.000	-29.657	
583.100	-38.827	
583.200	-14.661	
583.300	-7.435	
583.400	-21.046	
583.500	-17.349	
583.600	-28.418	
583.700	-32.048	
583.800	-24.425	
583.900	-29.350	
584.000	-17.505	
584.100	-29.038	
584.200	-28.345	
584.300	-21.195	
584.400	-31.549	
584.500	-19.121	
584.600	-16.914	
584.700	-30.616	
584.800	-17.787	
584.900	-18.181	
585.000	-29.094	
585.100	-21.159	
585.200	-16.220	
585.300	-15.416	
585.400	-7.649	
585.500	-22.231	
585.600	-11.331	
585.700	-34.267	
585.800	-11.824	
585.900	-26.237	
586.000	-11.784	
586.100	-28.065	
586.200	-15.742	
586.300	-24.626	
586.400	-24.659	
586.500	-39.157	
586.600	-20.264	
586.700	-18.291	
586.800	-13.403	
586.900	-21.192	
587.000	-19.682	
587.100	-22.211	
587.200	-22.119	
587.300	-23.694	
587.400	-18.506	
587.500	-23.389	
587.600	-24.492	
587.700	-22.352	
587.800	-17.941	
587.900	-21.827	
588.000	-18.227	
588.100	-27.775	
588.200	-16.611	
588.300	-20.090	
588.400	-17.806	
588.500	-20.560	
588.600	-24.038	
588.700	-30.290	
588.800	-23.448	
588.900	-22.445	
589.000	-15.154	
589.100	-26.596	
589.200	-24.166	
589.300	-14.800	
589.400	-19.137	
589.500	-17.308	
589.600	-16.820	
589.700	-23.349	
589.800	-10.487	
589.900	-11.843	
590.000	-18.712	
590.100	-27.317	
590.200	-27.990	
590.300	-17.818	
590.400	-27.708	
590.500	-14.841	
590.600	-28.448	
590.700	-16.323	
590.800	-28.662	
590.900	-26.719	
591.000	-20.559	
591.100	-17.886	
591.200	-18.277	
591.300	-19.040	
591.400	-22.208	
591.500	-7.876	
591.600	-28.853	
591.700	-20.184	
591.800	-21.858	
591.900	-8.394	
592.000	-7.657	
592.100	-14.906	
592.200	-18.653	
592.300	-18.465	
592.400	-34.248	
592.500	-12.119	
592.600	-15.986	
592.700	-23.469	
592.800	-33.955	
592.900	-16.368	
593.000	-11.345	
593.100	-16.760	
593.200	-18.099	
593.300	-15.391	
593.400	-26.128	
593.500	-32.426	
593.600	-11.660	
593.700	-13.248	
593.800	-27.149	
593.900	-22.223	
594.000	-15.408	
594.100	-19.167	
594.200	-29.731	
594.300	-37.556	
594.400	-8.841	
594.500	-17.671	
594.600	-20.742	
594.700	-18.932	
594.800	-27.819	
594.900	-22.006	
595.000	-13.509	
595.100	-22.476	
595.200	-28.794	
595.300	-16.034	
595.400	-27.886	
595.500	-27.982	
595.600	-8.326	
595.700	-19.214	
595.800	-17.628	
595.900	-31.218	
596.000	-13.865	
596.100	-23.499	
596.200	-16.127	
596.300	-17.012	
596.400	-27.155	
596.500	-6.431	
596.600	-28.844	
596.700	-10.088	
596.800	-10.772	
596.900	-26.124	
597.000	-22.451	
597.100	-16.893	
597.200	-8.434	
597.300	-18.308	
597.400	-18.571	
597.500	-16.183	
597.600	-18.396	
597.700	-19.599	
597.800	-3.999	
597.900	-29.522	
598.000	-3.973	
598.100	-6.981	
598.200	-34.338	
598.300	-13.864	
598.400	-20.246	
598.500	-22.215	
598.600	-24.349	
598.700	-13.805	
598.800	-19.351	
598.900	-10.641	
599.000	-10.969	
599.100	-4.249	
599.200	-20.385	
599.300	-9.399	
599.400	-18.374	
599.500	-20.832	
599.600	-28.986	
599.700	0.408	
599.800	-23.907	
599.900	-23.082	
600.000	-23.450	
600.100	0.951	
600.200	-22.168	
600.300	-14.451	
600.400	-11.897	
600.500	-18.467	
600.600	-26.765	
600.700	-11.102	
600.800	-27.899	
600.900	-4.378	
601.000	-21.435	
601.100	-20.971	
601.200	-28.158	
601.300	-3.625	
601.400	-24.344	
601.500	-6.385	
601.600	-14.728	
601.700	-22.682	
601.800	-19.174	
601.900	-6.467	
602.000	-25.228	
602.100	-24.227	
602.200	-24.123	
602.300	-17.804	
602.400	-9.790	
602.500	-24.082	
602.600	-5.710	
602.700	-36.034	
602.800	-15.221	
602.900	-19.568	
603.000	-19.163	
603.100	-12.126	
603.200	-28.084	
603.300	-17.948	
603.400	-23.137	
603.500	-22.061	
603.600	-6.725	
603.700	-7.038	
603.800	-24.294	
603.900	-22.536	
604.000	-10.486	
604.100	-9.211	
604.200	-17.447	
604.300	-14.285	
604.400	-26.625	
604.500	-12.836	
604.600	-14.332	
604.700	-21.614	
604.800	-2.256	
604.900	-18.668	
605.000	-10.364	
605.100	-14.173	
605.200	-16.364	
605.300	-20.123	
605.400	-15.761	
605.500	-19.390	
605.600	-19.682	
605.700	-40.224	
605.800	-12.012	
605.900	-14.307	
606.000	-17.480	
606.100	-7.237	
606.200	-8.714	
606.300	-18.601	
606.400	-18.508	
606.500	-6.228	
606.600	-17.542	
606.700	-15.373	
606.800	-24.365	
606.900	-26.060	
607.000	-13.979	
607.100	-20.658	
607.200	-17.959	
607.300	-18.785	
607.400	-13.771	
607.500	-19.295	
607.600	-15.671	
607.700	-15.204	
607.800	-6.713	
607.900	-15.335	
608.000	-25.904	
608.100	-6.212	
608.200	-15.682	
608.300	-3.080	
608.400	-15.883	
608.500	-35.996	
608.600	-9.637	
608.700	-6.082	
608.800	-9.219	
608.900	-12.401	
609.000	-3.994	
609.100	-25.642	
609.200	-20.399	
609.300	-22.775	
609.400	-7.852	
609.500	-5.130	
609.600	-9.909	
609.700	-23.898	
609.800	-24.416	
609.900	-18.134	
610.000	-20.560	
610.100	-9.186	
610.200	-23.975	
610.300	-9.156	
610.400	-17.928	
610.500	-21.760	
610.600	-23.854	
610.700	-24.136	
610.800	-9.365	
610.900	-20.206	
611.000	-13.889	
611.100	-5.624	
611.200	-29.643	
611.300	-4.214	
611.400	-13.561	
611.500	-17.420	
611.600	-8.736	
611.700	-19.896	
611.800	-3.306	
611.900	-15.985	
612.000	-25.032	
612.100	-16.520	
612.200	-8.515	
612.300	-16.567	
612.400	-20.101	
612.500	-16.412	
612.600	-16.598	
612.700	-12.615	
612.800	-25.411	
612.900	-12.594	
613.000	-29.073	
613.100	-16.958	
613.200	-12.419	
613.300	-1.900	
613.400	-9.990	
613.500	-19.626	
613.600	-13.063	
613.700	-18.867	
613.800	-12.081	
613.900	-16.491	
614.000	-18.018	
614.100	-8.081	
614.200	-25.083	
614.300	-9.385	
614.400	-13.962	
614.500	-20.044	
614.600	-29.739	
614.700	-8.823	
614.800	-16.645	
614.900	-13.222	
615.000	-15.822	
615.100	-24.853	
615.200	-14.005	
615.300	-18.383	
615.400	-11.065	
615.500	-12.860	
615.600	-12.186	
615.700	-28.609	
615.800	-27.314	
615.900	-23.809	
616.000	-22.943	
616.100	-7.798	
616.200	-14.713	
616.300	-6.905	
616.400	-2.965	
616.500	-3.532	
616.600	-21.584	
616.700	-7.791	
616.800	-5.409	
616.900	-15.705	
617.000	-22.308	
617.100	-18.308	
617.200	-10.956	
617.300	-11.375	
617.400	-27.359	
617.500	-9.866	
617.600	-16.359	
617.700	-8.930	
617.800	-18.633	
617.900	-12.203	
618.000	-19.716	
618.100	-17.156	
618.200	-16.010	
618.300	-15.109	
618.400	-17.718	
618.500	-8.342	
618.600	-21.147	
618.700	-18.681	
618.800	-1.328	
618.900	-17.393	
619.000	-14.357	
619.100	-11.507	
619.200	-12.353	
619.300	-0.864	
619.400	-22.341	
619.500	-10.795	
619.600	-16.673	
619.700	-7.951	
619.800	-19.925	
619.900	-11.609	
620.000	-20.977	
620.100	-7.115	
620.200	-16.070	
620.300	-11.273	
620.400	-18.734	
620.500	-14.709	
620.600	-22.097	
620.700	-7.483	
620.800	-7.638	
620.900	-17.830	
621.000	-15.431	
621.100	-15.049	
621.200	-15.672	
621.300	-5.467	
621.400	-13.660	
621.500	-27.661	
621.600	-23.606	
621.700	-7.859	
621.800	-13.285	
621.900	-17.368	
622.000	-25.475	
622.100	-22.419	
622.200	-24.627	
622.300	-24.454	
622.400	-17.497	
622.500	-14.904	
622.600	-9.748	
622.700	-25.084	
622.800	-7.918	
622.900	-15.236	
623.000	-13.543	
623.100	-20.953	
623.200	-15.825	
623.300	-11.577	
623.400	-9.522	
623.500	-25.862	
623.600	-1.776	
623.700	-31.910	
623.800	-11.320	
623.900	-16.350	
624.000	-10.825	
624.100	-11.429	
624.200	-24.489	
624.300	-11.234	
624.400	-17.670	
624.500	-18.678	
624.600	-11.379	
624.700	-10.019	
624.800	-5.087	
624.900	-5.662	
625.000	-21.178	
625.100	-10.220	
625.200	-2.993	
625.300	-18.058	
625.400	-10.660	
625.500	-16.274	
625.600	-8.540	
625.700	-15.499	
625.800	-22.857	
625.900	-9.614	
626.000	-3.886	
626.100	-15.613	
626.200	-6.070	
626.300	-18.949	
626.400	-17.022	
626.500	-13.908	
626.600	-20.176	
626.700	-7.186	
626.800	-12.551	
626.900	-15.249	
627.000	-9.386	
627.100	-12.572	
627.200	-31.763	
627.300	-0.615	
627.400	-11.554	
627.500	-18.820	
627.600	-13.264	
627.700	-21.254	
627.800	-19.060	
627.900	-12.478	
628.000	-18.349	
628.100	-8.969	
628.200	-11.175	
628.300	-11.153	
628.400	-20.912	
628.500	-13.202	
628.600	-20.186	
628.700	-4.066	
628.800	-8.050	
628.900	-13.601	
629.000	-3.640	
629.100	-16.266	
629.200	-16.796	
629.300	-14.192	
629.400	-13.566	
629.500	-6.758	
629.600	-13.358	
629.700	-7.345	
629.800	-30.443	
629.900	-2.513	
630.000	-4.842	
630.100	4.331	
630.200	18.971	
630.300	20.299	
630.400	21.921	
630.500	44.346	
630.600	41.110	
630.700	34.033	
630.800	35.758	
630.900	19.775	
631.000	42.164	
631.100	45.390	
631.200	34.792	
631.300	57.562	
631.400	50.061	
631.500	45.154	
631.600	48.935	
631.700	38.896	
631.800	49.083	
631.900	35.152	
632.000	34.801	
632.100	46.181	
632.200	33.966	
632.300	35.980	
632.400	44.320	
632.500	30.103	
632.600	29.596	
632.700	32.898	
632.800	33.648	
632.900	31.863	
633.000	25.181	
633.100	28.557	
633.200	36.582	
633.300	31.152	
633.400	40.708	
633.500	25.757	
633.600	9.782	
633.700	40.574	
633.800	39.300	
633.900	41.163	
634.000	41.640	
634.100	20.720	
634.200	31.505	
634.300	13.438	
634.400	29.071	
634.500	37.053	
634.600	44.814	
634.700	32.202	
634.800	35.610	
634.900	29.658	
635.000	34.940	
635.100	45.530	
635.200	36.873	
635.300	37.108	
635.400	36.282	
635.500	26.734	
635.600	39.344	
635.700	38.954	
635.800	31.250	
635.900	44.937	
636.000	37.440	
636.100	32.405	
636.200	38.242	
636.300	42.520	
636.400	47.158	
636.500	43.837	
636.600	45.336	
636.700	41.457	
636.800	47.015	
636.900	37.686	
637.000	50.517	
637.100	40.197	
637.200	50.359	
637.300	38.123	
637.400	65.269	
637.500	43.594	
637.600	47.148	
637.700	62.216	
637.800	46.857	
637.900	40.941	
638.000	45.118	
638.100	51.833	
638.200	58.129	
638.300	46.301	
638.400	50.874	
638.500	50.179	
638.600	51.786	
638.700	56.611	
638.800	43.339	
638.900	45.903	
639.000	51.564	
639.100	52.003	
639.200	69.068	
639.300	52.467	
639.400	69.810	
639.500	51.300	
639.600	50.637	
639.700	48.723	
639.800	50.867	
639.900	51.938	
640.000	64.061	
640.100	42.421	
640.200	65.161	
640.300	60.386	
640.400	53.423	
640.500	41.807	
640.600	71.364	
640.700	39.848	
640.800	72.362	
640.900	48.920	
641.000	50.891	
641.100	47.485	
641.200	66.731	
641.300	53.596	
641.400	64.824	
641.500	70.617	
641.600	45.342	
641.700	55.896	
641.800	49.245	
641.900	64.742	
642.000	64.540	
642.100	64.727	
642.200	50.118	
642.300	60.366	
642.400	43.255	
642.500	57.526	
642.600	54.591	
642.700	57.486	
642.800	51.183	
642.900	52.864	
643.000	71.247	
643.100	52.632	
643.200	64.723	
643.300	57.854	
643.400	63.269	
643.500	59.898	
643.600	56.014	
643.700	69.068	
643.800	51.089	
643.900	51.846	
644.000	51.247	
644.100	67.315	
644.200	66.708	
644.300	60.946	
644.400	57.949	
644.500	47.594	
644.600	65.437	
644.700	44.482	
644.800	63.717	
644.900	64.803	
645.000	63.040	
645.100	63.702	
645.200	59.682	
645.300	51.659	
645.400	54.589	
645.500	71.391	
645.600	62.613	
645.700	66.283	
645.800	45.460	
645.900	53.193	
646.000	46.609	
646.100	58.045	
646.200	65.555	
646.300	52.851	
646.400	57.619	
646.500	56.050	
646.600	62.960	
646.700	52.400	
646.800	58.430	
646.900	53.712	
647.000	62.335	
647.100	66.861	
647.200	56.589	
647.300	45.526	
647.400	78.545	
647.500	63.914	
647.600	54.585	
647.700	58.177	
647.800	70.499	
647.900	58.541	
648.000	44.779	
648.100	52.647	
648.200	65.069	
648.300	66.505	
648.400	57.983	
648.500	66.734	
648.600	52.445	
648.700	58.367	
648.800	59.573	
648.900	57.151	
649.000	63.472	
649.100	59.346	
649.200	62.174	
649.300	55.984	
649.400	57.211	
649.500	61.644	
649.600	69.052	
649.700	59.024	
649.800	61.424	
649.900	56.845	
650.000	67.910	
650.100	51.669	
650.200	60.340	
650.300	63.543	
650.400	66.234	
650.500	52.797	
650.600	66.362	
650.700	50.560	
650.800	66.726	
650.900	59.866	
651.000	64.145	
651.100	75.023	
651.200	56.680	
651.300	56.049	
651.400	50.915	
651.500	56.514	
651.600	51.761	
651.700	60.337	
651.800	61.864	
651.900	75.953	
652.000	55.014	
652.100	55.235	
652.200	51.190	
652.300	47.335	
652.400	56.683	
652.500	66.736	
652.600	59.825	
652.700	56.983	
652.800	65.412	
652.900	65.327	
653.000	58.311	
653.100	53.167	
653.200	58.240	
653.300	63.618	
653.400	45.444	
653.500	70.211	
653.600	57.022	
653.700	66.223	
653.800	62.875	
653.900	52.337	
654.000	61.758	
654.100	51.502	
654.200	48.761	
654.300	68.249	
654.400	63.387	
654.500	64.159	
654.600	67.720	
654.700	71.123	
654.800	61.501	
654.900	66.366	
655.000	59.584	
655.100	51.106	
655.200	62.333	
655.300	56.165	
655.400	63.151	
655.500	52.615	
655.600	72.436	
655.700	52.601	
655.800	58.926	
655.900	67.316	
656.000	66.273	
656.100	55.578	
656.200	65.078	
656.300	55.451	
656.400	71.770	
656.500	56.420	
656.600	51.758	
656.700	65.757	
656.800	56.348	
656.900	68.756	
657.000	68.003	
657.100	49.565	
657.200	62.292	
657.300	55.947	
657.400	57.908	
657.500	62.221	
657.600	72.035	
657.700	54.514	
657.800	56.878	
657.900	65.103	
658.000	59.539	
658.100	68.008	
658.200	59.323	
658.300	62.199	
658.400	67.551	
658.500	54.970	
658.600	62.241	
658.700	43.603	
658.800	54.863	
658.900	58.627	
659.000	45.926	
659.100	75.565	
659.200	63.837	
659.300	65.916	
659.400	65.597	
659.500	62.564	
659.600	60.988	
659.700	74.178	
659.800	61.046	
659.900	50.992	
660.000	69.603	
660.100	42.530	
660.200	58.445	
660.300	58.190	
660.400	61.102	
660.500	57.858	
660.600	58.064	
660.700	60.601	
660.800	57.621	
660.900	66.201	
661.000	64.691	
661.100	58.013	
661.200	64.948	
661.300	45.332	
661.400	70.445	
661.500	61.564	
661.600	73.652	
661.700	59.074	
661.800	76.804	
661.900	59.302	
662.000	69.300	
662.100	67.802	
662.200	52.037	
662.300	67.664	
662.400	79.714	
662.500	65.577	
662.600	51.724	
662.700	64.015	
662.800	63.932	
662.900	60.734	
663.000	80.549	
663.100	71.222	
663.200	56.704	
663.300	63.507	
663.400	61.271	
663.500	61.148	
663.600	58.409	
663.700	47.953	
663.800	60.926	
663.900	78.960	
664.000	66.499	
664.100	55.653	
664.200	73.287	
664.300	67.759	
664.400	52.357	
664.500	67.236	
664.600	56.446	
664.700	70.092	
664.800	61.989	
664.900	54.394	
665.000	65.675	
665.100	63.639	
665.200	64.113	
665.300	57.667	
665.400	63.921	
665.500	53.174	
665.600	83.905	
665.700	61.046	
665.800	68.189	
665.900	50.080	
666.000	70.003	
666.100	63.813	
666.200	68.887	
666.300	63.030	
666.400	54.678	
666.500	83.731	
666.600	64.283	
666.700	62.893	
666.800	53.475	
666.900	52.061	
667.000	81.809	
667.100	69.648	
667.200	56.205	
667.300	56.379	
667.400	61.432	
667.500	61.210	
667.600	56.702	
667.700	66.156	
667.800	65.773	
667.900	68.523	
668.000	69.828	
668.100	57.766	
668.200	76.373	
668.300	67.187	
668.400	65.144	
668.500	74.132	
668.600	68.470	
668.700	66.298	
668.800	61.691	
668.900	57.210	
669.000	72.753	
669.100	54.178	
669.200	55.395	
669.300	58.320	
669.400	65.264	
669.500	53.715	
669.600	65.614	
669.700	60.313	
669.800	44.153	
669.900	63.346	
670.000	55.676	
670.100	59.150	
670.200	59.304	
670.300	54.067	
670.400	83.963	
670.500	68.975	
670.600	60.247	
670.700	63.458	
670.800	63.555	
670.900	76.486	
671.000	51.655	
671.100	56.558	
671.200	61.560	
671.300	63.971	
671.400	65.926	
671.500	57.783	
671.600	60.547	
671.700	57.140	
671.800	66.691	
671.900	63.833	
672.000	57.043	
672.100	53.328	
672.200	74.220	
672.300	59.430	
672.400	62.317	
672.500	54.187	
672.600	66.476	
672.700	61.751	
672.800	58.134	
672.900	58.396	
673.000	63.549	
673.100	57.612	
673.200	67.141	
673.300	57.967	
673.400	62.883	
673.500	60.960	
673.600	73.707	
673.700	57.821	
673.800	62.382	
673.900	59.611	
674.000	54.966	
674.100	75.829	
674.200	54.674	
674.300	57.699	
674.400	66.934	
674.500	57.223	
674.600	58.447	
674.700	54.276	
674.800	76.905	
674.900	59.954	
675.000	47.819	
675.100	57.648	
675.200	54.561	
675.300	57.663	
675.400	60.747	
675.500	52.096	
675.600	69.360	
675.700	69.578	
675.800	62.195	
675.900	72.521	
676.000	56.898	
676.100	57.353	
676.200	55.827	
676.300	67.472	
676.400	52.971	
676.500	52.832	
676.600	65.504	
676.700	55.979	
676.800	41.062	
676.900	59.185	
677.000	57.846	
677.100	57.607	
677.200	68.717	
677.300	55.299	
677.400	62.851	
677.500	57.642	
677.600	71.375	
677.700	52.362	
677.800	48.319	
677.900	49.683	
678.000	65.150	
678.100	69.392	
678.200	62.588	
678.300	49.829	
678.400	56.631	
678.500	68.980	
678.600	37.116	
678.700	60.639	
678.800	46.687	
678.900	61.879	
679.000	57.401	
679.100	70.991	
679.200	62.740	
679.300	57.064	
679.400	61.619	
679.500	52.353	
679.600	50.762	
679.700	64.715	
679.800	59.180	
679.900	50.900	
680.000	51.186	
680.100	53.352	
680.200	61.828	
680.300	51.873	
680.400	64.277	
680.500	62.330	
680.600	57.710	
680.700	59.432	
680.800	72.842	
680.900	55.454	
681.000	52.888	
681.100	64.953	
681.200	58.085	
681.300	59.967	
681.400	57.303	
681.500	49.697	
681.600	54.864	
681.700	54.170	
681.800	62.404	
681.900	56.103	
682.000	52.079	
682.100	54.938	
682.200	62.011	
682.300	61.940	
682.400	50.744	
682.500	59.131	
682.600	57.821	
682.700	58.193	
682.800	55.949	
682.900	61.841	
683.000	53.021	
683.100	66.676	
683.200	64.594	
683.300	50.069	
683.400	54.850	
683.500	61.971	
683.600	47.958	
683.700	50.008	
683.800	57.907	
683.900	42.276	
684.000	72.346	
684.100	46.829	
684.200	58.184	
684.300	46.139	
684.400	43.012	
684.500	56.118	
684.600	65.823	
684.700	50.520	
684.800	60.275	
684.900	54.552	
685.000	56.944	
685.100	53.816	
685.200	35.526	
685.300	67.083	
685.400	49.664	
685.500	40.387	
685.600	55.298	
685.700	58.927	
685.800	55.787	
685.900	61.187	
686.000	57.639	
686.100	60.895	
686.200	53.284	
686.300	60.634	
686.400	51.777	
686.500	39.081	
686.600	60.020	
686.700	52.262	
686.800	56.064	
686.900	42.783	
687.000	65.023	
687.100	51.059	
687.200	53.627	
687.300	44.796	
687.400	52.871	
687.500	53.944	
687.600	56.898	
687.700	58.770	
687.800	39.268	
687.900	58.597	
688.000	55.687	
688.100	65.740	
688.200	56.500	
688.300	47.496	
688.400	51.221	
688.500	46.353	
688.600	50.056	
688.700	50.939	
688.800	56.738	
688.900	51.730	
689.000	43.860	
689.100	53.565	
689.200	66.242	
689.300	49.090	
689.400	60.253	
689.500	52.148	
689.600	59.523	
689.700	48.926	
689.800	54.960	
689.900	52.051	
690.000	59.688	
690.100	36.383	
690.200	38.992	
690.300	30.022	
690.400	27.515	
690.500	7.284	
690.600	14.308	
690.700	-5.399	
690.800	0.061	
690.900	-11.826	
691.000	-24.069	
691.100	-20.491	
691.200	-40.096	
691.300	-42.380	
691.400	-38.689	
691.500	-47.299	
691.600	-47.581	
691.700	-61.114	
691.800	-57.547	
691.900	-60.972	
692.000	-65.045	
692.100	-64.673	
692.200	-68.097	
692.300	-55.044	
692.400	-63.802	
692.500	-69.387	
692.600	-76.727	
692.700	-70.708	
692.800	-60.054	
692.900	-79.640	
693.000	-75.253	
693.100	-69.703	
693.200	-70.429	
693.300	-69.527	
693.400	-66.273	
693.500	-65.847	
693.600	-69.875	
693.700	-72.012	
693.800	-56.010	
693.900	-69.343	
694.000	-76.911	
694.100	-63.999	
694.200	-61.136	
694.300	-78.701	
694.400	-79.215	
694.500	-70.449	
694.600	-51.317	
694.700	-63.307	
694.800	-78.617	
694.900	-56.673	
695.000	-61.977	
695.100	-58.582	
695.200	-75.228	
695.300	-58.367	
695.400	-66.182	
695.500	-56.085	
695.600	-61.415	
695.700	-76.994	
695.800	-61.707	
695.900	-63.615	
696.000	-50.349	
696.100	-72.908	
696.200	-75.234	
696.300	-53.128	
696.400	-65.041	
696.500	-63.567	
696.600	-69.436	
696.700	-70.888	
696.800	-57.735	
696.900	-58.972	
697.000	-66.998	
697.100	-64.630	
697.200	-54.971	
697.300	-70.941	
697.400	-69.150	
697.500	-57.613	
697.600	-60.944	
697.700	-66.363	
697.800	-63.864	
697.900	-65.213	
698.000	-60.202	
698.100	-58.966	
698.200	-53.744	
698.300	-68.175	
698.400	-62.645	
698.500	-71.643	
698.600	-56.486	
698.700	-56.250	
698.800	-57.353	
698.900	-67.395	
699.000	-55.304	
699.100	-63.127	
699.200	-64.262	
699.300	-59.957	
699.400	-42.415	
699.500	-60.793	
699.600	-61.730	
699.700	-54.422	
699.800	-51.907	
699.900	-63.194	
700.000	-58.349	
700.100	-67.167	
700.200	-55.216	
700.300	-56.104	
700.400	-47.794	
700.500	-62.220	
700.600	-44.300	
700.700	-64.075	
700.800	-56.544	
700.900	-50.946	
701.000	-58.625	
701.100	-74.500	
701.200	-62.999	
701.300	-58.044	
701.400	-54.516	
701.500	-67.781	
701.600	-53.843	
701.700	-56.688	
701.800	-49.541	
701.900	-58.331	
702.000	-37.444	
702.100	-64.859	
702.200	-64.315	
702.300	-47.838	
702.400	-53.547	
702.500	-48.544	
702.600	-47.750	
702.700	-48.297	
702.800	-73.706	
702.900	-45.860	
703.000	-52.755	
703.100	-53.608	
703.200	-51.917	
703.300	-58.175	
703.400	-41.041	
703.500	-53.378	
703.600	-56.905	
703.700	-52.746	
703.800	-56.089	
703.900	-52.843	
704.000	-38.571	
704.100	-30.274	
704.200	-57.892	
704.300	-37.149	
704.400	-53.941	
704.500	-60.072	
704.600	-50.111	
704.700	-57.843	
704.800	-65.207	
704.900	-47.906	
705.000	-46.504	
705.100	-52.710	
705.200	-53.685	
705.300	-54.877	
705.400	-51.365	
705.500	-46.434	
705.600	-72.769	
705.700	-53.319	
705.800	-58.379	
705.900	-50.798	
706.000	-50.500	
706.100	-51.317	
706.200	-45.222	
706.300	-46.891	
706.400	-46.525	
706.500	-36.133	
706.600	-46.792	
706.700	-60.860	
706.800	-38.831	
706.900	-49.001	
707.000	-56.560	
707.100	-38.350	
707.200	-52.234	
707.300	-59.257	
707.400	-40.609	
707.500	-48.026	
707.600	-50.206	
707.700	-39.937	
707.800	-51.644	
707.900	-46.082	
708.000	-29.315	
708.100	-39.665	
708.200	-47.847	
708.300	-45.879	
708.400	-57.929	
708.500	-40.167	
708.600	-43.704	
708.700	-50.392	
708.800	-49.996	
708.900	-44.083	
709.000	-28.491	
709.100	-32.472	
709.200	-51.780	
709.300	-42.543	
709.400	-50.837	
709.500	-36.296	
709.600	-39.879	
709.700	-58.020	
709.800	-23.452	
709.900	-43.979	
710.000	-49.791	
710.100	-40.062	
710.200	-56.888	
710.300	-38.537	
710.400	-39.807	
710.500	-38.377	
710.600	-45.881	
710.700	-40.108	
710.800	-36.909	
710.900	-47.476	
711.000	-39.345	
711.100	-28.053	
711.200	-45.478	
711.300	-39.415	
711.400	-43.549	
711.500	-48.944	
711.600	-38.030	
711.700	-36.658	
711.800	-52.498	
711.900	-34.438	
712.000	-44.335	
712.100	-34.787	
712.200	-29.067	
712.300	-40.743	
712.400	-37.341	
712.500	-43.008	
712.600	-29.828	
712.700	-30.640	
712.800	-34.414	
712.900	-49.347	
713.000	-37.379	
713.100	-33.596	
713.200	-36.361	
713.300	-35.985	
713.400	-39.494	
713.500	-30.521	
713.600	-33.572	
713.700	-45.044	
713.800	-32.244	
713.900	-30.135	
714.000	-39.033	
714.100	-30.758	
714.200	-33.147	
714.300	-35.629	
714.400	-30.549	
714.500	-43.012	
714.600	-33.351	
714.700	-32.790	
714.800	-43.643	
714.900	-36.536	
715.000	-36.420	
715.100	-29.573	
715.200	-41.210	
715.300	-33.655	
715.400	-23.485	
715.500	-28.698	
715.600	-43.428	
715.700	-38.419	
715.800	-27.076	
715.900	-51.407	
716.000	-15.334	
716.100	-15.084	
716.200	-40.554	
716.300	-30.243	
716.400	-35.005	
716.500	-19.354	
716.600	-42.743	
716.700	-15.893	
716.800	-41.456	
716.900	-44.125	
717.000	-36.075	
717.100	-38.485	
717.200	-41.448	
717.300	-26.067	
717.400	-24.623	
717.500	-31.849	
717.600	-39.350	
717.700	-32.437	
717.800	-30.716	
717.900	-34.508	
718.000	-38.639	
718.100	-28.333	
718.200	-25.493	
718.300	-41.308	
718.400	-25.425	
718.500	-38.375	
718.600	-31.466	
718.700	-43.859	
718.800	-34.645	
718.900	-28.171	
719.000	-22.014	
719.100	-34.931	
719.200	-26.655	
719.300	-29.037	
719.400	-20.058	
719.500	-25.915	
719.600	-28.687	
719.700	-19.719	
719.800	-29.137	
719.900	-37.502	
720.000	-28.460	
720.100	-35.134	
720.200	-21.941	
720.300	-47.192	
720.400	-30.501	
720.500	-21.537	
720.600	-27.973	
720.700	-35.994	
720.800	-37.926	
720.900	-37.177	
721.000	-12.530	
721.100	-28.676	
721.200	-29.025	
721.300	-40.553	
721.400	-35.144	
721.500	-39.267	
721.600	-28.288	
721.700	-34.952	
721.800	-24.217	
721.900	-17.764	
722.000	-26.248	
722.100	-19.533	
722.200	-39.020	
722.300	-27.989	
722.400	-27.106	
722.500	-26.782	
722.600	-30.972	
722.700	-28.815	
722.800	-24.250	
722.900	-29.425	
723.000	-29.347	
723.100	-25.488	
723.200	-50.673	
723.300	-25.665	
723.400	-31.392	
723.500	-26.633	
723.600	-13.918	
723.700	-24.337	
723.800	-28.932	
723.900	-29.153	
724.000	-36.392	
724.100	-29.989	
724.200	-38.175	
724.300	-26.386	
724.400	-34.325	
724.500	-23.145	
724.600	-24.869	
724.700	-22.287	
724.800	-28.788	
724.900	-24.745	
725.000	-19.796	
725.100	-13.457	
725.200	-33.260	
725.300	-32.957	
725.400	-9.333	
725.500	-30.177	
725.600	-30.224	
725.700	-18.192	
725.800	-20.332	
725.900	-28.703	
726.000	-15.096	
726.100	-29.111	
726.200	-27.760	
726.300	-30.376	
726.400	-19.170	
726.500	-27.273	
726.600	-26.271	
726.700	-16.018	
726.800	-19.148	
726.900	-43.741	
727.000	-17.172	
727.100	-27.219	
727.200	-26.538	
727.300	-25.742	
727.400	-17.831	
727.500	-24.865	
727.600	-21.691	
727.700	-24.738	
727.800	-15.017	
727.900	-46.868	
728.000	-21.978	
728.100	-24.425	
728.200	-19.938	
728.300	-32.642	
728.400	-28.805	
728.500	-18.061	
728.600	-31.313	
728.700	-15.099	
728.800	-24.806	
728.900	-17.256	
729.000	-27.314	
729.100	-19.009	
729.200	-28.762	
729.300	-31.660	
729.400	-34.156	
729.500	-28.260	
729.600	-13.888	
729.700	-22.692	
729.800	-13.811	
729.900	-31.917	
730.000	-15.478	
730.100	-23.144	
730.200	-29.770	
730.300	-17.980	
730.400	-40.409	
730.500	-15.529	
730.600	-13.400	
730.700	-15.606	
730.800	-21.690	
730.900	-31.471	
731.000	-15.933	
731.100	-18.850	
731.200	-20.988	
731.300	-18.426	
731.400	-22.862	
731.500	-29.647	
731.600	-6.827	
731.700	-20.762	
731.800	-22.671	
731.900	-30.029	
732.000	-34.359	
732.100	-2.564	
732.200	-24.558	
732.300	-13.053	
732.400	-22.754	
732.500	-24.637	
732.600	-19.527	
732.700	-27.051	
732.800	-18.108	
732.900	-34.108	
733.000	-5.480	
733.100	-22.762	
733.200	-14.519	
733.300	-11.610	
733.400	-5.567	
733.500	-25.832	
733.600	-15.248	
733.700	-15.415	
733.800	-22.876	
733.900	-17.679	
734.000	-20.575	
734.100	-25.678	
734.200	-22.118	
734.300	-22.396	
734.400	-30.599	
734.500	-18.463	
734.600	-18.916	
734.700	-29.986	
734.800	-21.707	
734.900	-28.101	
735.000	-14.335	
735.100	-5.327	
735.200	-28.293	
735.300	-20.079	
735.400	-31.385	
735.500	-26.918	
735.600	-28.072	
735.700	-19.343	
735.800	-17.494	
735.900	-17.342	
736.000	-19.713	
736.100	-47.491	
736.200	-24.247	
736.300	-13.770	
736.400	-16.797	
736.500	-13.222	
736.600	-9.410	
736.700	-27.020	
736.800	-24.325	
736.900	-31.400	
737.000	-13.170	
737.100	-13.935	
737.200	-24.152	
737.300	-24.386	
737.400	-20.792	
737.500	-34.789	
737.600	-6.969	
737.700	-19.526	
737.800	-16.019	
737.900	-27.296	
738.000	-17.314	
738.100	-0.876	
738.200	-27.968	
738.300	-18.908	
738.400	-8.738	
738.500	-30.944	
738.600	-21.789	
738.700	-17.724	
738.800	-14.820	
738.900	-17.449	
739.000	-27.065	
739.100	-21.815	
739.200	-17.127	
739.300	-19.132	
739.400	-23.934	
739.500	-25.984	
739.600	-22.446	
739.700	-6.238	
739.800	-24.964	
739.900	-30.816	
740.000	-17.107	
740.100	-17.942	
740.200	-29.683	
740.300	-18.922	
740.400	-18.147	
740.500	-27.148	
740.600	-17.004	
740.700	-22.586	
740.800	-15.579	
740.900	-30.778	
741.000	-24.466	
741.100	-22.209	
741.200	-19.309	
741.300	4.822	
741.400	-18.668	
741.500	-19.852	
741.600	-15.367	
741.700	-15.171	
741.800	-23.139	
741.900	-19.894	
742.000	-26.200	
742.100	-17.683	
742.200	-12.604	
742.300	-26.153	
742.400	-14.938	
742.500	-20.931	
742.600	-17.719	
742.700	-25.992	
742.800	-24.981	
742.900	-25.617	
743.000	-23.388	
743.100	-20.045	
743.200	-14.307	
743.300	-16.264	
743.400	-18.420	
743.500	-25.336	
743.600	-20.119	
743.700	-13.475	
743.800	-18.167	
743.900	-24.667	
744.000	-7.130	
744.100	-25.918	
744.200	-12.320	
744.300	-35.207	
744.400	-5.128	
744.500	-22.990	
744.600	-17.746	
744.700	-25.217	
744.800	-13.426	
744.900	-16.378	
745.000	-14.187	
745.100	-24.037	
745.200	-23.809	
745.300	-15.569	
745.400	-17.804	
745.500	-27.556	
745.600	-19.463	
745.700	-5.615	
745.800	-13.044	
745.900	-21.135	
746.000	-31.620	
746.100	-21.549	
746.200	-23.823	
746.300	-29.221	
746.400	-7.029	
746.500	-25.996	
746.600	-28.228	
746.700	-12.136	
746.800	-12.323	
746.900	-22.613	
747.000	-22.164	
747.100	-20.503	
747.200	-25.298	
747.300	-10.837	
747.400	-31.298	
747.500	-18.193	
747.600	-5.561	
747.700	-18.575	
747.800	-19.831	
747.900	-17.357	
748.000	-20.106	
748.100	-26.147	
748.200	-7.390	
748.300	-18.990	
748.400	-19.766	
748.500	-25.522	
748.600	-16.548	
748.700	-19.491	
748.800	-8.901	
748.900	-19.689	
749.000	-12.202	
749.100	-13.132	
749.200	-16.810	
749.300	-19.844	
749.400	-13.574	
749.500	-24.032	
749.600	-25.403	
749.700	-20.856	
749.800	-14.822	
749.900	-22.693	
750.000	-15.286	
750.100	-16.278	
750.200	-15.879	
750.300	-9.660	
750.400	-25.319	
750.500	-30.635	
750.600	-8.600	
750.700	-6.471	
750.800	-33.638	
750.900	-12.885	
751.000	-23.110	
751.100	-13.751	
751.200	-13.259	
751.300	-49.555	
751.400	5.089	
751.500	-16.839	
751.600	-24.322	
751.700	-18.548	
751.800	-26.234	
751.900	-17.258	
752.000	-6.049	
752.100	-20.855	
752.200	-16.833	
752.300	-13.860	
752.400	-18.832	
752.500	-14.979	
752.600	-10.386	
752.700	-26.171	
752.800	-24.579	
752.900	-18.539	
753.000	-12.877	
753.100	-15.025	
753.200	-13.079	
753.300	-10.281	
753.400	-7.935	
753.500	-11.640	
753.600	-23.470	
753.700	-12.741	
753.800	-22.083	
753.900	-28.045	
754.000	-13.974	
754.100	-17.163	
754.200	-32.079	
754.300	1.647	
754.400	-8.757	
754.500	-23.511	
754.600	-16.026	
754.700	-5.864	
754.800	-24.588	
754.900	-21.593	
755.000	-13.859	
755.100	-11.614	
755.200	-18.105	
755.300	-22.069	
755.400	-9.037	
755.500	-4.789	
755.600	-20.439	
755.700	-21.885	
755.800	-12.714	
755.900	-25.190	
756.000	-16.912	
756.100	-17.713	
756.200	-25.770	
756.300	-16.694	
756.400	-16.138	
756.500	-16.810	
756.600	-23.533	
756.700	-11.787	
756.800	3.824	
756.900	-15.507	
757.000	-20.995	
757.100	3.274	
757.200	-18.361	
757.300	-20.570	
757.400	-8.950	
757.500	6.543	
757.600	-19.167	
757.700	-15.772	
757.800	-19.947	
757.900	-18.647	
758.000	-22.211	
758.100	-23.348	
758.200	-10.880	
758.300	-14.782	
758.400	-43.128	
758.500	-32.078	
758.600	-16.298	
758.700	-11.652	
758.800	-26.117	
758.900	-21.749	
759.000	-11.805	
759.100	-12.943	
759.200	-30.362	
759.300	-16.293	
759.400	-15.667	
759.500	-8.669	
759.600	-11.423	
759.700	-19.147	
759.800	1.424	
759.900	-17.373	
760.000	-13.981	
760.100	-17.212	
760.200	-24.867	
760.300	-0.079	
760.400	-23.354	
760.500	-10.966	
760.600	-18.473	
760.700	-31.816	
760.800	-18.553	
760.900	-20.797	
761.000	-9.347	
761.100	-16.120	
761.200	-15.757	
761.300	-20.606	
761.400	-10.075	
761.500	-12.612	
761.600	-25.883	
761.700	-6.223	
761.800	-24.081	
761.900	-19.798	
762.000	-18.341	
762.100	-7.600	
762.200	-9.838	
762.300	-21.125	
762.400	-5.774	
762.500	-18.693	
762.600	-14.266	
762.700	-25.268	
762.800	-10.078	
762.900	-3.577	
763.000	-11.526	
763.100	-14.074	
763.200	-23.754	
763.300	-13.709	
763.400	-15.782	
763.500	-23.349	
763.600	-12.220	
763.700	-19.430	
763.800	-20.817	
763.900	-17.844	
764.000	-33.264	
764.100	-13.290	
764.200	-16.834	
764.300	-18.158	
764.400	-7.666	
764.500	-26.935	
764.600	1.653	
764.700	-20.872	
764.800	-17.847	
764.900	-13.849	
765.000	-12.380	
765.100	-21.996	
765.200	-21.312	
765.300	-5.632	
765.400	-21.992	
765.500	-23.771	
765.600	-28.422	
765.700	-5.919	
765.800	-13.786	
765.900	-20.706	
766.000	-11.537	
766.100	-2.508	
766.200	-19.623	
766.300	-18.708	
766.400	-25.068	
766.500	-11.408	
766.600	-19.927	
766.700	-9.148	
766.800	-15.497	
766.900	3.857	
767.000	-33.362	
767.100	-22.387	
767.200	-13.249	
767.300	-10.829	
767.400	-15.650	
767.500	-23.161	
767.600	-19.943	
767.700	-28.084	
767.800	-7.548	
767.900	-13.076	
768.000	-19.700	
768.100	-17.068	
768.200	-16.160	
768.300	-16.103	
768.400	-34.688	
768.500	-17.542	
768.600	-25.502	
768.700	-14.935	
768.800	-13.051	
768.900	-9.573	
769.000	-11.774	
769.100	-19.026	
769.200	-18.847	
769.300	-32.278	
769.400	-8.979	
769.500	-12.097	
769.600	-13.515	
769.700	-40.773	
769.800	-2.336	
769.900	-11.020	
770.000	-24.918	
770.100	-4.357	
770.200	-20.036	
770.300	-15.807	
770.400	-19.829	
770.500	0.085	
770.600	-21.121	
770.700	-19.039	
770.800	-18.278	
770.900	-7.292	
771.000	-19.080	
771.100	-16.322	
771.200	-19.261	
771.300	-11.709	
771.400	-2.019	
771.500	-15.049	
771.600	-16.882	
771.700	-13.539	
771.800	-10.826	
771.900	6.120	
772.000	3.438	
772.100	-32.628	
772.200	-6.588	
772.300	-19.219	
772.400	-9.540	
772.500	-21.421	
772.600	-25.235	
772.700	-11.244	
772.800	-9.442	
772.900	-10.408	
773.000	-20.177	
773.100	-19.463	
773.200	-16.758	
773.300	-12.141	
773.400	-14.594	
773.500	-22.269	
773.600	-13.435	
773.700	-12.520	
773.800	-24.185	
773.900	-27.346	
774.000	-24.188	
774.100	-11.481	
774.200	-11.974	
774.300	-11.326	
774.400	-26.245	
774.500	-10.853	
774.600	-19.839	
774.700	-15.361	
774.800	-24.431	
774.900	-23.425	
775.000	-15.972	
775.100	-13.319	
775.200	-7.134	
775.300	-18.967	
775.400	-18.928	
775.500	-7.877	
775.600	0.496	
775.700	-20.157	
775.800	-3.171	
775.900	-9.679	
776.000	-14.073	
776.100	-23.054	
776.200	-27.133	
776.300	-4.948	
776.400	-19.972	
776.500	-27.357	
776.600	-15.620	
776.700	-20.001	
776.800	-25.009	
776.900	9.080	
777.000	-24.966	
777.100	-25.079	
777.200	-3.083	
777.300	-15.207	
777.400	-26.618	
777.500	-13.604	
777.600	-11.387	
777.700	-16.219	
777.800	-15.525	
777.900	-27.226	
778.000	-9.075	
778.100	-14.705	
778.200	-23.440	
778.300	-21.959	
778.400	-7.696	
778.500	-6.297	
778.600	-8.623	
778.700	-24.941	
778.800	-11.692	
778.900	-8.090	
779.000	-10.685	
779.100	-2.481	
779.200	-11.685	
779.300	-23.167	
779.400	-1.666	
779.500	-16.375	
779.600	-16.025	
779.700	-21.482	
779.800	-16.005	
779.900	-8.203	
780.000	-1.881	
780.100	-9.428	
780.200	-1.908	
780.300	10.061	
780.400	22.786	
780.500	13.121	
780.600	33.976	
780.700	29.670	
780.800	44.258	
780.900	40.686	
781.000	35.901	
781.100	57.091	
781.200	37.311	
781.300	41.783	
781.400	19.833	
781.500	58.139	
781.600	45.237	
781.700	42.230	
781.800	41.831	
781.900	49.800	
782.000	44.554	
782.100	52.841	
782.200	52.982	
782.300	40.165	
782.400	33.766	
782.500	44.345	
782.600	32.023	
782.700	42.212	
782.800	34.623	
782.900	42.104	
783.000	21.195	
783.100	35.866	
783.200	28.810	
783.300	35.428	
783.400	30.567	
783.500	38.839	
783.600	39.156	
783.700	35.937	
783.800	32.493	
783.900	23.580	
784.000	31.868	
784.100	40.124	
784.200	37.706	
784.300	38.930	
784.400	31.492	
784.500	29.164	
784.600	38.458	
784.700	32.050	
784.800	27.314	
784.900	29.365	
785.000	35.691	
785.100	22.432	
785.200	33.863	
785.300	45.973	
785.400	42.019	
785.500	42.349	
785.600	45.101	
785.700	35.769	
785.800	40.300	
785.900	48.709	
786.000	34.229	
786.100	46.568	
786.200	44.854	
786.300	53.004	
786.400	46.591	
786.500	53.947	
786.600	50.107	
786.700	23.239	
786.800	35.134	
786.900	52.685	
787.000	46.770	
787.100	54.685	
787.200	49.904	
787.300	37.506	
787.400	50.723	
787.500	61.810	
787.600	53.333	
787.700	49.634	
787.800	44.010	
787.900	56.896	
788.000	44.767	
788.100	42.967	
788.200	64.837	
788.300	32.938	
788.400	53.573	
788.500	51.525	
788.600	46.194	
788.700	53.618	
788.800	54.870	
788.900	59.785	
789.000	52.363	
789.100	62.006	
789.200	46.064	
789.300	51.775	
789.400	51.058	
789.500	50.446	
789.600	56.917	
789.700	74.362	
789.800	56.397	
789.900	49.646	
790.000	46.166	
790.100	50.235	
790.200	44.885	
790.300	58.046	
790.400	49.845	
790.500	60.460	
790.600	53.385	
790.700	65.348	
790.800	59.506	
790.900	48.481	
791.000	62.937	
791.100	53.525	
791.200	53.111	
791.300	47.011	
791.400	53.661	
791.500	62.330	
791.600	55.511	
791.700	58.738	
791.800	63.803	
791.900	63.551	
792.000	46.916	
792.100	50.219	
792.200	69.954	
792.300	54.365	
792.400	64.100	
792.500	44.803	
792.600	70.823	
792.700	54.897	
792.800	48.351	
792.900	50.692	
793.000	65.218	
793.100	50.781	
793.200	66.512	
793.300	56.447	
793.400	54.322	
793.500	49.847	
793.600	63.647	
793.700	70.422	
793.800	59.364	
793.900	48.637	
794.000	68.911	
794.100	63.827	
794.200	55.726	
794.300	58.303	
794.400	50.068	
794.500	62.038	
794.600	66.054	
794.700	81.041	
794.800	59.067	
794.900	52.601	
795.000	63.128	
795.100	46.827	
795.200	55.819	
795.300	45.213	
795.400	59.551	
795.500	70.720	
795.600	62.281	
795.700	47.494	
795.800	41.332	
795.900	62.310	
796.000	57.737	
796.100	45.655	
796.200	58.750	
796.300	70.889	
796.400	63.808	
796.500	57.018	
796.600	61.232	
796.700	52.152	
796.800	65.056	
796.900	44.332	
797.000	65.731	
797.100	51.123	
797.200	62.530	
797.300	63.041	
797.400	55.320	
797.500	48.755	
797.600	56.757	
797.700	53.368	
797.800	58.430	
797.900	58.729	
798.000	45.523	
798.100	64.405	
798.200	55.850	
798.300	57.486	
798.400	45.881	
798.500	61.868	
798.600	70.256	
798.700	52.161	
798.800	65.078	
798.900	57.224	
799.000	58.473	
799.100	59.590	
799.200	59.931	
799.300	54.761	
799.400	55.666	
799.500	57.811	
799.600	65.223	
799.700	56.584	
799.800	59.447	
799.900	60.764	
800.000	59.264	
