time /s	I /nA	
0.100	14.872	
0.200	-0.959	
0.300	3.207	
0.400	-4.784	
0.500	-12.563	
0.600	8.292	
0.700	-28.117	
0.800	5.755	
0.900	5.590	
1.000	-17.234	
1.100	-6.485	
1.200	-2.903	
1.300	-11.820	
1.400	-0.614	
1.500	-7.158	
1.600	1.987	
1.700	-10.653	
1.800	-5.350	
1.900	1.585	
2.000	4.030	
2.100	-10.970	
2.200	-3.527	
2.300	-5.641	
2.400	-1.944	
2.500	-12.780	
2.600	3.990	
2.700	2.624	
2.800	-3.776	
2.900	0.087	
3.000	-12.003	
3.100	-14.821	
3.200	7.491	
3.300	-0.724	
3.400	-8.450	
3.500	-3.195	
3.600	-2.631	
3.700	-2.908	
3.800	-16.511	
3.900	-3.024	
4.000	-7.441	
4.100	1.726	
4.200	-2.409	
4.300	10.298	
4.400	-3.529	
4.500	-5.559	
4.600	2.245	
4.700	6.977	
4.800	-9.737	
4.900	1.581	
5.000	-8.695	
5.100	6.730	
5.200	-3.633	
5.300	0.741	
5.400	-7.187	
5.500	-17.212	
5.600	-2.559	
5.700	-21.429	
5.800	-4.619	
5.900	-6.299	
6.000	-6.675	
6.100	-2.115	
6.200	-0.050	
6.300	-9.107	
6.400	-0.087	
6.500	-14.188	
6.600	-8.335	
6.700	-5.044	
6.800	14.132	
6.900	0.020	
7.000	-1.279	
7.100	-0.924	
7.200	-19.212	
7.300	-4.036	
7.400	-2.417	
7.500	-0.315	
7.600	-18.984	
7.700	-17.867	
7.800	-2.024	
7.900	-10.780	
8.000	-11.372	
8.100	-22.655	
8.200	-3.127	
8.300	0.011	
8.400	0.378	
8.500	-1.124	
8.600	-11.891	
8.700	-8.052	
8.800	5.883	
8.900	-2.641	
9.000	-2.281	
9.100	-0.620	
9.200	-20.779	
9.300	-2.641	
9.400	5.496	
9.500	-20.518	
9.600	7.627	
9.700	0.640	
9.800	-6.173	
9.900	1.297	
10.000	-4.136	
10.100	-10.378	
10.200	-12.436	
10.300	1.183	
10.400	-21.650	
10.500	-1.706	
10.600	-2.211	
10.700	4.739	
10.800	-9.179	
10.900	-8.499	
11.000	-6.665	
11.100	-11.331	
11.200	-3.986	
11.300	7.846	
11.400	-12.874	
11.500	-8.267	
11.600	-9.311	
11.700	16.214	
11.800	0.369	
11.900	-10.648	
12.000	-4.575	
12.100	-6.905	
12.200	-9.841	
12.300	-1.890	
12.400	-8.803	
12.500	-4.501	
12.600	4.933	
12.700	-15.858	
12.800	-18.424	
12.900	-3.639	
13.000	-11.246	
13.100	1.762	
13.200	-7.913	
13.300	-6.626	
13.400	4.995	
13.500	-6.209	
13.600	-7.198	
13.700	0.737	
13.800	7.554	
13.900	1.331	
14.000	0.513	
14.100	-3.543	
14.200	-0.148	
14.300	-8.619	
14.400	-13.453	
14.500	-5.594	
14.600	-3.764	
14.700	-0.302	
14.800	-19.534	
14.900	-1.934	
15.000	-11.639	
15.100	0.157	
15.200	1.213	
15.300	-6.568	
15.400	-6.564	
15.500	-4.686	
15.600	-9.575	
15.700	-20.445	
15.800	-4.282	
15.900	-2.988	
16.000	-2.054	
16.100	-5.064	
16.200	-2.280	
16.300	-10.049	
16.400	-6.379	
16.500	-6.611	
16.600	-7.260	
16.700	1.113	
16.800	-15.353	
16.900	-10.129	
17.000	1.311	
17.100	-1.469	
17.200	5.103	
17.300	-19.034	
17.400	10.443	
17.500	-13.298	
17.600	-6.364	
17.700	-5.459	
17.800	-17.818	
17.900	-1.871	
18.000	1.004	
18.100	-7.596	
18.200	-3.114	
18.300	8.941	
18.400	-1.880	
18.500	-2.533	
18.600	2.467	
18.700	1.478	
18.800	-15.490	
18.900	4.132	
19.000	-10.012	
19.100	-5.890	
19.200	-7.353	
19.300	4.120	
19.400	-0.430	
19.500	-10.642	
19.600	-13.363	
19.700	6.028	
19.800	-14.596	
19.900	-3.373	
20.000	-15.277	
20.100	-20.987	
20.200	-12.374	
20.300	0.437	
20.400	-8.077	
20.500	-11.173	
20.600	-11.026	
20.700	13.150	
20.800	0.699	
20.900	-9.847	
21.000	-1.114	
21.100	-3.865	
21.200	-2.023	
21.300	-12.343	
21.400	-6.200	
21.500	-13.566	
21.600	-5.760	
21.700	13.577	
21.800	-8.264	
21.900	-10.712	
22.000	10.951	
22.100	-5.044	
22.200	-6.640	
22.300	-0.778	
22.400	-9.309	
22.500	-2.347	
22.600	-10.357	
22.700	-6.149	
22.800	-9.303	
22.900	-16.908	
23.000	-1.027	
23.100	-8.485	
23.200	-16.506	
23.300	5.027	
23.400	-4.980	
23.500	-1.036	
23.600	-7.975	
23.700	20.054	
23.800	-1.298	
23.900	-14.726	
24.000	-9.868	
24.100	2.754	
24.200	-12.226	
24.300	2.260	
24.400	-18.692	
24.500	-2.361	
24.600	-3.193	
24.700	-4.596	
24.800	1.823	
24.900	-0.506	
25.000	-14.270	
25.100	6.450	
25.200	-19.833	
25.300	8.173	
25.400	11.144	
25.500	-6.685	
25.600	-2.925	
25.700	23.114	
25.800	-3.286	
25.900	-4.775	
26.000	-10.856	
26.100	-3.358	
26.200	9.373	
26.300	-12.999	
26.400	-6.140	
26.500	-1.519	
26.600	-12.910	
26.700	-1.309	
26.800	-11.906	
26.900	-11.612	
27.000	-7.900	
27.100	8.189	
27.200	-1.083	
27.300	-7.033	
27.400	-16.522	
27.500	-9.390	
27.600	-8.413	
27.700	-9.259	
27.800	4.245	
27.900	-0.459	
28.000	-3.784	
28.100	-7.409	
28.200	-16.903	
28.300	7.463	
28.400	-11.908	
28.500	9.454	
28.600	0.700	
28.700	-17.781	
28.800	-8.863	
28.900	12.305	
29.000	-15.570	
29.100	-0.325	
29.200	-13.245	
29.300	2.091	
29.400	-9.002	
29.500	-14.997	
29.600	1.853	
29.700	0.178	
29.800	-1.555	
29.900	-4.989	
30.000	6.569	
30.100	11.825	
30.200	6.307	
30.300	15.954	
30.400	17.563	
30.500	26.569	
30.600	28.975	
30.700	27.927	
30.800	31.838	
30.900	36.506	
31.000	26.987	
31.100	32.376	
31.200	46.977	
31.300	38.781	
31.400	31.821	
31.500	8.565	
31.600	42.579	
31.700	25.766	
31.800	27.172	
31.900	36.832	
32.000	37.782	
32.100	25.046	
32.200	29.871	
32.300	27.353	
32.400	44.617	
32.500	34.685	
32.600	33.580	
32.700	23.227	
32.800	27.778	
32.900	25.866	
33.000	26.419	
33.100	31.698	
33.200	20.670	
33.300	28.281	
33.400	23.935	
33.500	22.486	
33.600	26.437	
33.700	3.669	
33.800	27.990	
33.900	35.121	
34.000	27.219	
34.100	26.637	
34.200	14.321	
34.300	24.859	
34.400	32.644	
34.500	21.855	
34.600	12.615	
34.700	30.795	
34.800	28.057	
34.900	16.778	
35.000	18.473	
35.100	22.689	
35.200	22.122	
35.300	19.110	
35.400	27.368	
35.500	21.974	
35.600	7.536	
35.700	23.454	
35.800	17.985	
35.900	22.032	
36.000	36.378	
36.100	22.647	
36.200	24.364	
36.300	22.002	
36.400	15.556	
36.500	20.150	
36.600	27.990	
36.700	37.671	
36.800	26.847	
36.900	12.555	
37.000	23.140	
37.100	22.756	
37.200	9.825	
37.300	31.971	
37.400	32.591	
37.500	17.529	
37.600	44.199	
37.700	33.821	
37.800	23.870	
37.900	32.146	
38.000	17.578	
38.100	17.970	
38.200	19.975	
38.300	28.685	
38.400	26.387	
38.500	35.362	
38.600	31.735	
38.700	28.549	
38.800	36.394	
38.900	29.834	
39.000	36.352	
39.100	49.830	
39.200	23.839	
39.300	39.214	
39.400	24.606	
39.500	33.685	
39.600	44.574	
39.700	31.086	
39.800	25.841	
39.900	29.036	
40.000	39.249	
40.100	42.386	
40.200	31.358	
40.300	41.796	
40.400	28.623	
40.500	29.231	
40.600	33.065	
40.700	40.320	
40.800	46.991	
40.900	40.613	
41.000	33.586	
41.100	45.026	
41.200	36.240	
41.300	43.751	
41.400	41.138	
41.500	36.004	
41.600	63.183	
41.700	31.927	
41.800	32.751	
41.900	56.467	
42.000	42.869	
42.100	39.508	
42.200	47.454	
42.300	45.582	
42.400	33.445	
42.500	48.223	
42.600	43.322	
42.700	46.976	
42.800	45.136	
42.900	47.502	
43.000	55.095	
43.100	49.473	
43.200	56.078	
43.300	43.950	
43.400	48.804	
43.500	42.817	
43.600	49.465	
43.700	42.600	
43.800	48.349	
43.900	42.278	
44.000	52.621	
44.100	43.899	
44.200	51.375	
44.300	48.713	
44.400	46.120	
44.500	46.028	
44.600	53.256	
44.700	52.656	
44.800	39.604	
44.900	52.551	
45.000	62.993	
45.100	51.956	
45.200	56.246	
45.300	49.218	
45.400	49.780	
45.500	54.119	
45.600	53.220	
45.700	59.914	
45.800	49.007	
45.900	46.498	
46.000	49.816	
46.100	52.383	
46.200	38.403	
46.300	52.232	
46.400	49.818	
46.500	51.544	
46.600	49.706	
46.700	39.915	
46.800	58.158	
46.900	51.342	
47.000	56.205	
47.100	60.178	
47.200	46.716	
47.300	48.911	
47.400	57.193	
47.500	36.771	
47.600	47.002	
47.700	54.378	
47.800	45.751	
47.900	48.584	
48.000	35.258	
48.100	48.661	
48.200	47.195	
48.300	49.520	
48.400	59.371	
48.500	52.440	
48.600	42.638	
48.700	55.289	
48.800	47.476	
48.900	39.594	
49.000	48.538	
49.100	46.731	
49.200	52.342	
49.300	45.241	
49.400	35.193	
49.500	34.388	
49.600	55.457	
49.700	38.805	
49.800	56.600	
49.900	36.696	
50.000	39.085	
50.100	43.246	
50.200	55.010	
50.300	32.419	
50.400	44.948	
50.500	47.672	
50.600	46.097	
50.700	62.728	
50.800	45.444	
50.900	42.662	
51.000	35.217	
51.100	42.835	
51.200	49.408	
51.300	31.730	
51.400	44.109	
51.500	45.599	
51.600	45.614	
51.700	33.772	
51.800	52.723	
51.900	47.221	
52.000	45.242	
52.100	46.941	
52.200	41.865	
52.300	54.877	
52.400	43.945	
52.500	40.371	
52.600	34.926	
52.700	51.670	
52.800	40.799	
52.900	32.554	
53.000	50.729	
53.100	45.998	
53.200	37.784	
53.300	46.686	
53.400	53.343	
53.500	45.589	
53.600	38.981	
53.700	36.322	
53.800	45.494	
53.900	40.243	
54.000	31.188	
54.100	42.040	
54.200	39.547	
54.300	52.879	
54.400	41.148	
54.500	26.048	
54.600	42.718	
54.700	45.207	
54.800	47.098	
54.900	50.303	
55.000	48.025	
55.100	52.194	
55.200	51.789	
55.300	35.490	
55.400	45.897	
55.500	28.944	
55.600	46.590	
55.700	23.686	
55.800	45.611	
55.900	41.404	
56.000	45.149	
56.100	44.586	
56.200	40.417	
56.300	33.975	
56.400	47.644	
56.500	32.501	
56.600	44.577	
56.700	43.745	
56.800	32.408	
56.900	44.907	
57.000	45.005	
57.100	44.404	
57.200	31.539	
57.300	38.255	
57.400	38.727	
57.500	36.762	
57.600	39.622	
57.700	42.493	
57.800	41.902	
57.900	42.491	
58.000	43.865	
58.100	32.669	
58.200	32.454	
58.300	33.319	
58.400	33.700	
58.500	39.656	
58.600	54.526	
58.700	42.216	
58.800	35.153	
58.900	38.565	
59.000	39.002	
59.100	49.263	
59.200	41.626	
59.300	41.391	
59.400	45.742	
59.500	24.298	
59.600	31.124	
59.700	43.834	
59.800	28.360	
59.900	54.430	
60.000	33.110	
60.100	32.267	
60.200	40.568	
60.300	43.064	
60.400	37.094	
60.500	53.669	
60.600	31.199	
60.700	48.723	
60.800	44.909	
60.900	42.085	
61.000	34.593	
61.100	41.948	
61.200	49.139	
61.300	19.183	
61.400	30.184	
61.500	56.746	
61.600	45.913	
61.700	31.969	
61.800	42.141	
61.900	37.633	
62.000	26.691	
62.100	50.822	
62.200	38.593	
62.300	22.998	
62.400	26.203	
62.500	42.489	
62.600	41.537	
62.700	33.130	
62.800	37.490	
62.900	42.207	
63.000	31.342	
63.100	47.068	
63.200	27.897	
63.300	49.993	
63.400	42.246	
63.500	37.966	
63.600	32.696	
63.700	45.577	
63.800	46.763	
63.900	45.418	
64.000	29.647	
64.100	41.831	
64.200	48.200	
64.300	44.019	
64.400	49.303	
64.500	31.915	
64.600	30.026	
64.700	31.352	
64.800	36.460	
64.900	42.771	
65.000	56.052	
65.100	39.451	
65.200	48.436	
65.300	24.398	
65.400	39.760	
65.500	22.796	
65.600	37.763	
65.700	43.331	
65.800	42.098	
65.900	37.358	
66.000	36.797	
66.100	16.368	
66.200	42.967	
66.300	44.165	
66.400	40.812	
66.500	41.926	
66.600	37.174	
66.700	22.881	
66.800	38.742	
66.900	29.824	
67.000	42.384	
67.100	25.642	
67.200	39.345	
67.300	47.584	
67.400	34.468	
67.500	25.407	
67.600	33.784	
67.700	50.327	
67.800	22.377	
67.900	42.173	
68.000	40.191	
68.100	28.855	
68.200	35.602	
68.300	34.888	
68.400	27.616	
68.500	33.918	
68.600	43.614	
68.700	40.134	
68.800	48.666	
68.900	33.870	
69.000	26.914	
69.100	26.084	
69.200	32.209	
69.300	35.311	
69.400	38.108	
69.500	49.008	
69.600	35.983	
69.700	31.226	
69.800	48.746	
69.900	40.910	
70.000	42.701	
70.100	39.437	
70.200	36.768	
70.300	27.814	
70.400	22.359	
70.500	42.554	
70.600	40.050	
70.700	33.833	
70.800	46.760	
70.900	37.995	
71.000	15.562	
71.100	44.816	
71.200	30.627	
71.300	31.625	
71.400	30.060	
71.500	40.130	
71.600	33.618	
71.700	41.035	
71.800	39.649	
71.900	40.290	
72.000	45.375	
72.100	30.218	
72.200	41.720	
72.300	36.124	
72.400	34.586	
72.500	45.165	
72.600	28.722	
72.700	37.510	
72.800	46.200	
72.900	46.321	
73.000	48.687	
73.100	28.629	
73.200	30.453	
73.300	34.978	
73.400	44.995	
73.500	39.268	
73.600	44.661	
73.700	31.182	
73.800	32.433	
73.900	33.330	
74.000	49.926	
74.100	40.335	
74.200	31.262	
74.300	43.253	
74.400	35.304	
74.500	23.104	
74.600	28.836	
74.700	38.793	
74.800	35.691	
74.900	33.728	
75.000	40.426	
75.100	38.652	
75.200	26.073	
75.300	43.271	
75.400	33.232	
75.500	41.745	
75.600	37.739	
75.700	39.753	
75.800	37.890	
75.900	29.278	
76.000	45.557	
76.100	30.593	
76.200	37.012	
76.300	25.656	
76.400	33.659	
76.500	27.616	
76.600	31.047	
76.700	30.684	
76.800	46.286	
76.900	32.413	
77.000	40.842	
77.100	55.054	
77.200	31.871	
77.300	38.532	
77.400	26.923	
77.500	41.775	
77.600	40.476	
77.700	40.553	
77.800	36.071	
77.900	51.629	
78.000	30.219	
78.100	36.595	
78.200	44.918	
78.300	30.506	
78.400	48.041	
78.500	30.197	
78.600	30.112	
78.700	35.317	
78.800	34.965	
78.900	28.455	
79.000	37.060	
79.100	29.711	
79.200	34.896	
79.300	37.644	
79.400	40.155	
79.500	41.314	
79.600	43.049	
79.700	41.032	
79.800	44.783	
79.900	28.134	
80.000	31.755	
80.100	40.245	
80.200	49.271	
80.300	41.150	
80.400	25.835	
80.500	45.860	
80.600	34.699	
80.700	25.104	
80.800	42.756	
80.900	28.440	
81.000	35.490	
81.100	48.108	
81.200	39.953	
81.300	36.220	
81.400	53.759	
81.500	29.178	
81.600	32.377	
81.700	57.858	
81.800	38.973	
81.900	30.096	
82.000	30.147	
82.100	42.087	
82.200	34.943	
82.300	38.789	
82.400	20.084	
82.500	39.675	
82.600	48.497	
82.700	30.067	
82.800	37.426	
82.900	47.174	
83.000	35.645	
83.100	44.928	
83.200	37.854	
83.300	28.155	
83.400	58.959	
83.500	33.082	
83.600	42.053	
83.700	48.844	
83.800	38.264	
83.900	44.933	
84.000	34.742	
84.100	40.353	
84.200	26.226	
84.300	47.805	
84.400	35.508	
84.500	28.982	
84.600	51.806	
84.700	40.179	
84.800	39.491	
84.900	45.453	
85.000	43.516	
85.100	35.167	
85.200	37.467	
85.300	37.856	
85.400	37.235	
85.500	46.384	
85.600	35.076	
85.700	41.483	
85.800	43.893	
85.900	46.323	
86.000	44.417	
86.100	43.282	
86.200	27.728	
86.300	46.453	
86.400	34.332	
86.500	52.333	
86.600	39.729	
86.700	39.121	
86.800	42.766	
86.900	39.034	
87.000	43.215	
87.100	40.543	
87.200	34.577	
87.300	39.482	
87.400	52.071	
87.500	40.099	
87.600	40.694	
87.700	30.896	
87.800	34.240	
87.900	29.755	
88.000	38.830	
88.100	24.151	
88.200	55.176	
88.300	22.424	
88.400	45.600	
88.500	42.327	
88.600	33.420	
88.700	32.077	
88.800	42.127	
88.900	45.091	
89.000	42.873	
89.100	27.780	
89.200	42.168	
89.300	46.802	
89.400	44.577	
89.500	35.785	
89.600	50.607	
89.700	38.436	
89.800	36.667	
89.900	34.555	
90.000	42.956	
90.100	25.722	
90.200	30.113	
90.300	31.015	
90.400	15.075	
90.500	26.068	
90.600	11.973	
90.700	9.144	
90.800	25.146	
90.900	6.382	
91.000	15.433	
91.100	10.767	
91.200	8.714	
91.300	11.513	
91.400	-1.150	
91.500	-0.526	
91.600	-13.162	
91.700	6.514	
91.800	-4.031	
91.900	-13.211	
92.000	2.564	
92.100	-10.449	
92.200	-16.837	
92.300	-26.551	
92.400	-11.222	
92.500	-28.088	
92.600	-4.102	
92.700	-18.372	
92.800	-16.582	
92.900	-8.788	
93.000	-12.064	
93.100	-24.234	
93.200	-22.066	
93.300	-23.471	
93.400	-16.684	
93.500	-15.859	
93.600	-22.589	
93.700	-29.471	
93.800	-19.692	
93.900	-26.083	
94.000	-16.331	
94.100	-17.213	
94.200	-29.122	
94.300	-14.442	
94.400	-24.042	
94.500	-27.081	
94.600	-30.140	
94.700	-19.483	
94.800	-22.293	
94.900	-14.012	
95.000	-22.911	
95.100	-15.849	
95.200	-34.499	
95.300	-20.048	
95.400	-2.779	
95.500	-14.967	
95.600	-17.103	
95.700	-27.903	
95.800	-20.550	
95.900	-13.603	
96.000	-26.555	
96.100	-24.357	
96.200	-9.689	
96.300	-26.902	
96.400	-17.462	
96.500	-12.687	
96.600	-13.885	
96.700	-22.316	
96.800	-11.920	
96.900	0.771	
97.000	-17.732	
97.100	-4.982	
97.200	-26.025	
97.300	-21.510	
97.400	-19.433	
97.500	-17.938	
97.600	-17.702	
97.700	-16.353	
97.800	-28.278	
97.900	-14.037	
98.000	-7.671	
98.100	-25.943	
98.200	-13.545	
98.300	-14.710	
98.400	-13.009	
98.500	-2.134	
98.600	-8.758	
98.700	-17.080	
98.800	-25.503	
98.900	-18.600	
99.000	-3.758	
99.100	-22.867	
99.200	-12.925	
99.300	-14.975	
99.400	-3.502	
99.500	-25.726	
99.600	-35.662	
99.700	-10.207	
99.800	-17.517	
99.900	-7.457	
100.000	-17.040	
100.100	-9.735	
100.200	-20.498	
100.300	-4.310	
100.400	-3.282	
100.500	-30.993	
100.600	6.332	
100.700	-5.824	
100.800	-16.339	
100.900	-39.118	
101.000	-7.177	
101.100	-8.488	
101.200	-17.420	
101.300	-8.301	
101.400	-31.762	
101.500	-7.489	
101.600	-27.365	
101.700	-17.764	
101.800	-6.331	
101.900	-13.926	
102.000	-5.744	
102.100	-11.568	
102.200	-8.843	
102.300	-30.272	
102.400	-12.041	
102.500	-9.260	
102.600	-9.401	
102.700	-25.118	
102.800	-21.585	
102.900	-21.377	
103.000	-9.767	
103.100	-0.648	
103.200	-14.263	
103.300	-11.183	
103.400	-25.097	
103.500	-23.167	
103.600	-10.619	
103.700	-29.873	
103.800	-4.637	
103.900	-22.848	
104.000	-23.382	
104.100	-14.693	
104.200	-14.134	
104.300	-13.558	
104.400	-31.124	
104.500	-7.566	
104.600	-8.021	
104.700	-13.777	
104.800	-2.829	
104.900	-17.820	
105.000	-8.160	
105.100	-18.839	
105.200	-6.819	
105.300	-26.604	
105.400	-16.204	
105.500	-18.991	
105.600	-8.540	
105.700	-14.060	
105.800	-11.715	
105.900	-28.826	
106.000	-15.688	
106.100	-14.290	
106.200	3.162	
106.300	-19.071	
106.400	-14.154	
106.500	-13.414	
106.600	-20.318	
106.700	-10.178	
106.800	-15.834	
106.900	-12.086	
107.000	-17.921	
107.100	-11.686	
107.200	-6.608	
107.300	-15.918	
107.400	-21.454	
107.500	-19.830	
107.600	-4.598	
107.700	-15.942	
107.800	0.789	
107.900	-28.840	
108.000	-9.025	
108.100	-15.984	
108.200	-2.543	
108.300	-18.436	
108.400	-9.500	
108.500	-10.275	
108.600	-16.230	
108.700	-8.347	
108.800	-26.449	
108.900	-12.247	
109.000	0.819	
109.100	-21.750	
109.200	-10.904	
109.300	-10.131	
109.400	-1.822	
109.500	-20.449	
109.600	-10.102	
109.700	-13.326	
109.800	-19.260	
109.900	-12.126	
110.000	-22.461	
110.100	-4.255	
110.200	-8.480	
110.300	-9.899	
110.400	-17.983	
110.500	-5.902	
110.600	-3.932	
110.700	-15.776	
110.800	-31.973	
110.900	-3.969	
111.000	-10.018	
111.100	-3.445	
111.200	-29.645	
111.300	-15.172	
111.400	-30.357	
111.500	-4.377	
111.600	-9.970	
111.700	-22.899	
111.800	-3.515	
111.900	-19.660	
112.000	-21.152	
112.100	-5.799	
112.200	-6.450	
112.300	-15.134	
112.400	-21.111	
112.500	-1.568	
112.600	-15.337	
112.700	-36.442	
112.800	-5.515	
112.900	-11.853	
113.000	-23.039	
113.100	-15.291	
113.200	-19.118	
113.300	-27.404	
113.400	-8.072	
113.500	-7.686	
113.600	-9.998	
113.700	-11.291	
113.800	-12.160	
113.900	-13.105	
114.000	-11.910	
114.100	-9.309	
114.200	-17.855	
114.300	-7.959	
114.400	-13.499	
114.500	-26.177	
114.600	-11.688	
114.700	-14.636	
114.800	-15.456	
114.900	-6.382	
115.000	-23.263	
115.100	-9.818	
115.200	-15.798	
115.300	-22.158	
115.400	-23.467	
115.500	-11.340	
115.600	-5.193	
115.700	-2.507	
115.800	-8.014	
115.900	-11.502	
116.000	-17.522	
116.100	-16.666	
116.200	-14.963	
116.300	-27.909	
116.400	-10.509	
116.500	-14.118	
116.600	-20.300	
116.700	-14.045	
116.800	-12.257	
116.900	-18.282	
117.000	-5.792	
117.100	-23.208	
117.200	-6.277	
117.300	-28.277	
117.400	-16.914	
117.500	-8.514	
117.600	-19.072	
117.700	-23.439	
117.800	-9.880	
117.900	-15.393	
118.000	-41.201	
118.100	-8.099	
118.200	-8.253	
118.300	-20.180	
118.400	-14.892	
118.500	-11.291	
118.600	-4.543	
118.700	-25.290	
118.800	-12.287	
118.900	-9.271	
119.000	-17.273	
119.100	-12.534	
119.200	-8.707	
119.300	-21.848	
119.400	-18.578	
119.500	-11.591	
119.600	-14.416	
119.700	-18.088	
119.800	-17.979	
119.900	-16.205	
120.000	-0.022	
120.100	-10.639	
120.200	-18.645	
120.300	-22.500	
120.400	-18.747	
120.500	-9.606	
120.600	-11.980	
120.700	-12.081	
120.800	-11.757	
120.900	-13.876	
121.000	-12.895	
121.100	-23.071	
121.200	-10.690	
121.300	-6.667	
121.400	-4.619	
121.500	-13.205	
121.600	-18.082	
121.700	-11.123	
121.800	-11.596	
121.900	-13.637	
122.000	-9.537	
122.100	-18.471	
122.200	-15.185	
122.300	-13.411	
122.400	-12.185	
122.500	-24.466	
122.600	-12.223	
122.700	-32.194	
122.800	-3.613	
122.900	-12.314	
123.000	-22.213	
123.100	-8.447	
123.200	-6.079	
123.300	-26.413	
123.400	-14.227	
123.500	-0.193	
123.600	-9.265	
123.700	-28.152	
123.800	-3.704	
123.900	-17.956	
124.000	2.851	
124.100	-15.205	
124.200	-12.687	
124.300	-14.333	
124.400	-23.465	
124.500	-9.495	
124.600	-12.278	
124.700	-5.507	
124.800	-4.553	
124.900	-25.997	
125.000	-18.183	
125.100	-17.939	
125.200	-14.583	
125.300	-18.596	
125.400	-28.242	
125.500	-6.197	
125.600	-8.737	
125.700	-9.781	
125.800	-15.699	
125.900	-8.652	
126.000	-28.023	
126.100	-11.803	
126.200	-2.909	
126.300	-14.441	
126.400	-27.309	
126.500	-7.101	
126.600	-12.055	
126.700	-12.149	
126.800	-15.068	
126.900	-6.913	
127.000	-13.255	
127.100	-20.417	
127.200	-11.999	
127.300	-14.621	
127.400	-10.283	
127.500	-12.379	
127.600	-13.663	
127.700	-15.910	
127.800	3.445	
127.900	-7.730	
128.000	-6.285	
128.100	-8.866	
128.200	-13.042	
128.300	-22.357	
128.400	1.408	
128.500	-17.838	
128.600	-19.711	
128.700	-27.214	
128.800	-5.440	
128.900	-13.365	
129.000	-21.354	
129.100	-12.079	
129.200	0.108	
129.300	-11.537	
129.400	-8.538	
129.500	-18.858	
129.600	-12.443	
129.700	-20.276	
129.800	-14.464	
129.900	-12.112	
130.000	-11.446	
130.100	-9.696	
130.200	-22.414	
130.300	-11.698	
130.400	-16.270	
130.500	-12.415	
130.600	-13.549	
130.700	-0.388	
130.800	-22.561	
130.900	-30.448	
131.000	-15.215	
131.100	-18.747	
131.200	-12.298	
131.300	-5.600	
131.400	-8.773	
131.500	-17.782	
131.600	-12.965	
131.700	-13.265	
131.800	-16.633	
131.900	-7.855	
132.000	-9.461	
132.100	-29.396	
132.200	-1.052	
132.300	-13.274	
132.400	-22.476	
132.500	-14.059	
132.600	-9.936	
132.700	-16.443	
132.800	-21.211	
132.900	-26.801	
133.000	-10.751	
133.100	-2.546	
133.200	-22.841	
133.300	-10.145	
133.400	-16.146	
133.500	-1.140	
133.600	-15.337	
133.700	-16.773	
133.800	-11.789	
133.900	-14.093	
134.000	-8.920	
134.100	-18.488	
134.200	-26.652	
134.300	-7.969	
134.400	-10.075	
134.500	-10.175	
134.600	-7.669	
134.700	-15.749	
134.800	-10.481	
134.900	-8.314	
135.000	-17.296	
135.100	-6.445	
135.200	-23.107	
135.300	-8.328	
135.400	-17.162	
135.500	-4.014	
135.600	-9.091	
135.700	-11.382	
135.800	-14.609	
135.900	-15.359	
136.000	-16.076	
136.100	-11.681	
136.200	-18.245	
136.300	-12.894	
136.400	-19.138	
136.500	-17.488	
136.600	-14.629	
136.700	-5.892	
136.800	-13.483	
136.900	-13.038	
137.000	-7.351	
137.100	-12.032	
137.200	-11.931	
137.300	-13.628	
137.400	-10.718	
137.500	-19.734	
137.600	-3.927	
137.700	-20.248	
137.800	-7.435	
137.900	-9.799	
138.000	-14.811	
138.100	8.886	
138.200	-8.741	
138.300	-6.520	
138.400	-20.500	
138.500	-4.404	
138.600	-18.365	
138.700	1.898	
138.800	-24.480	
138.900	-8.690	
139.000	-13.936	
139.100	-8.485	
139.200	-6.115	
139.300	-20.463	
139.400	-6.781	
139.500	-12.389	
139.600	-10.608	
139.700	-26.096	
139.800	-7.400	
139.900	-14.831	
140.000	-10.737	
140.100	-2.390	
140.200	-17.984	
140.300	-18.048	
140.400	-7.781	
140.500	6.942	
140.600	-25.444	
140.700	-11.515	
140.800	-2.916	
140.900	-18.684	
141.000	-14.392	
141.100	-3.363	
141.200	-19.650	
141.300	-23.355	
141.400	-16.405	
141.500	-12.481	
141.600	-10.028	
141.700	-1.789	
141.800	-15.162	
141.900	-11.040	
142.000	-15.497	
142.100	-4.717	
142.200	-16.145	
142.300	15.417	
142.400	-5.495	
142.500	-18.106	
142.600	-7.551	
142.700	-10.615	
142.800	-22.343	
142.900	-12.695	
143.000	-14.746	
143.100	-14.591	
143.200	2.112	
143.300	-6.966	
143.400	-6.458	
143.500	-11.114	
143.600	-5.167	
143.700	-26.146	
143.800	-5.964	
143.900	-15.228	
144.000	-10.981	
144.100	-5.632	
144.200	-7.643	
144.300	-6.622	
144.400	-24.715	
144.500	-6.900	
144.600	-5.637	
144.700	-24.938	
144.800	-0.810	
144.900	1.442	
145.000	-6.274	
145.100	-25.965	
145.200	-12.163	
145.300	-11.146	
145.400	-8.850	
145.500	-13.215	
145.600	-10.680	
145.700	-5.708	
145.800	-8.123	
145.900	-15.068	
146.000	-9.994	
146.100	-10.562	
146.200	-5.600	
146.300	0.367	
146.400	-27.827	
146.500	-20.336	
146.600	-5.490	
146.700	-19.416	
146.800	-11.180	
146.900	-11.766	
147.000	-17.634	
147.100	-7.488	
147.200	-12.929	
147.300	-14.945	
147.400	-20.813	
147.500	5.160	
147.600	2.502	
147.700	-18.545	
147.800	-21.459	
147.900	-3.142	
148.000	-15.876	
148.100	-20.636	
148.200	-14.326	
148.300	-12.947	
148.400	-7.418	
148.500	-16.514	
148.600	-6.088	
148.700	-13.278	
148.800	-4.685	
148.900	-9.087	
149.000	-17.764	
149.100	-27.047	
149.200	-7.218	
149.300	-14.536	
149.400	5.329	
149.500	0.924	
149.600	-4.330	
149.700	-10.697	
149.800	-7.995	
149.900	-17.411	
150.000	-0.923	
150.100	2.423	
150.200	-10.064	
150.300	-7.844	
150.400	-13.835	
150.500	-9.935	
150.600	-20.512	
150.700	-11.294	
150.800	-4.616	
150.900	-10.229	
151.000	3.015	
151.100	-12.897	
151.200	-16.904	
151.300	-8.771	
151.400	-16.875	
151.500	-4.920	
151.600	-23.361	
151.700	-19.688	
151.800	-7.432	
151.900	-2.547	
152.000	4.921	
152.100	-16.908	
152.200	-20.822	
152.300	3.574	
152.400	-10.976	
152.500	-13.083	
152.600	-13.416	
152.700	-12.414	
152.800	-13.758	
152.900	-5.490	
153.000	-16.040	
153.100	-12.014	
153.200	-10.566	
153.300	-13.892	
153.400	-11.387	
153.500	-5.037	
153.600	-13.696	
153.700	-4.923	
153.800	-4.422	
153.900	-14.413	
154.000	-8.632	
154.100	-5.983	
154.200	-21.407	
154.300	-4.991	
154.400	-26.051	
154.500	-10.637	
154.600	-19.137	
154.700	-8.310	
154.800	-2.094	
154.900	-10.175	
155.000	-22.562	
155.100	2.130	
155.200	-2.122	
155.300	-20.157	
155.400	2.387	
155.500	-6.506	
155.600	-9.628	
155.700	-8.799	
155.800	-7.951	
155.900	-13.448	
156.000	-13.812	
156.100	-5.979	
156.200	-5.233	
156.300	-8.795	
156.400	-14.515	
156.500	-1.316	
156.600	-18.655	
156.700	-1.815	
156.800	-9.909	
156.900	-9.112	
157.000	-5.506	
157.100	-18.985	
157.200	-13.926	
157.300	-8.464	
157.400	-5.737	
157.500	-8.519	
157.600	5.114	
157.700	-32.331	
157.800	-9.974	
157.900	-0.940	
158.000	4.484	
158.100	-25.757	
158.200	-16.537	
158.300	-4.411	
158.400	-10.613	
158.500	-2.052	
158.600	-0.202	
158.700	-8.252	
158.800	-6.326	
158.900	-8.850	
159.000	-1.295	
159.100	-5.025	
159.200	-3.408	
159.300	-10.764	
159.400	-20.281	
159.500	-13.080	
159.600	-7.212	
159.700	-7.051	
159.800	9.497	
159.900	-3.058	
160.000	-0.803	
160.100	-9.666	
160.200	-5.423	
160.300	-4.255	
160.400	-16.325	
160.500	-15.162	
160.600	-4.732	
160.700	-11.768	
160.800	-1.706	
160.900	-23.021	
161.000	-4.045	
161.100	-5.463	
161.200	-12.239	
161.300	-25.235	
161.400	-9.865	
161.500	-17.129	
161.600	-11.863	
161.700	3.610	
161.800	-7.716	
161.900	-14.205	
162.000	-7.672	
162.100	-25.788	
162.200	-3.347	
162.300	-16.958	
162.400	3.939	
162.500	-9.887	
162.600	0.902	
162.700	-3.927	
162.800	-16.961	
162.900	-15.499	
163.000	-12.234	
163.100	-11.406	
163.200	-8.185	
163.300	-13.753	
163.400	-0.378	
163.500	-4.443	
163.600	-23.786	
163.700	-1.039	
163.800	-6.746	
163.900	-8.850	
164.000	-2.458	
164.100	-6.401	
164.200	-11.748	
164.300	-3.740	
164.400	-9.584	
164.500	-14.314	
164.600	-17.987	
164.700	-13.255	
164.800	-5.107	
164.900	-9.928	
165.000	-13.445	
165.100	-13.739	
165.200	-17.045	
165.300	-0.614	
165.400	-4.948	
165.500	-10.380	
165.600	-15.854	
165.700	-5.137	
165.800	-11.531	
165.900	3.203	
166.000	-1.067	
166.100	-9.605	
166.200	-5.791	
166.300	-7.773	
166.400	-14.034	
166.500	-19.594	
166.600	-3.332	
166.700	-14.443	
166.800	-6.885	
166.900	-5.680	
167.000	-13.971	
167.100	-3.256	
167.200	-25.022	
167.300	-15.594	
167.400	-12.917	
167.500	-3.374	
167.600	-26.239	
167.700	5.317	
167.800	-1.682	
167.900	-2.413	
168.000	-10.785	
168.100	-14.129	
168.200	-6.852	
168.300	-2.919	
168.400	-10.339	
168.500	-11.425	
168.600	-11.468	
168.700	-8.367	
168.800	-3.779	
168.900	1.219	
169.000	-18.090	
169.100	-0.077	
169.200	-8.867	
169.300	-11.000	
169.400	-13.477	
169.500	-2.997	
169.600	-2.703	
169.700	-15.671	
169.800	0.776	
169.900	-4.585	
170.000	-10.444	
170.100	-10.183	
170.200	-8.212	
170.300	1.258	
170.400	-21.125	
170.500	-8.980	
170.600	5.290	
170.700	-11.109	
170.800	-12.375	
170.900	9.026	
171.000	-15.640	
171.100	-6.495	
171.200	-5.556	
171.300	-4.493	
171.400	-11.757	
171.500	-5.057	
171.600	-7.584	
171.700	-3.004	
171.800	-14.568	
171.900	7.027	
172.000	-17.843	
172.100	-9.371	
172.200	-2.334	
172.300	2.041	
172.400	-2.869	
172.500	-8.637	
172.600	-15.363	
172.700	-11.058	
172.800	-8.534	
172.900	-8.227	
173.000	-7.786	
173.100	0.098	
173.200	-16.588	
173.300	-7.345	
173.400	-4.371	
173.500	-7.925	
173.600	-12.263	
173.700	0.533	
173.800	1.060	
173.900	-11.359	
174.000	-1.975	
174.100	-1.214	
174.200	-5.751	
174.300	-11.550	
174.400	-2.951	
174.500	-3.460	
174.600	-6.158	
174.700	-11.680	
174.800	4.887	
174.900	-6.516	
175.000	-9.727	
175.100	-5.344	
175.200	-20.496	
175.300	-4.404	
175.400	4.133	
175.500	-11.479	
175.600	-15.272	
175.700	-25.361	
175.800	9.397	
175.900	-14.453	
176.000	-2.443	
176.100	-9.683	
176.200	-1.941	
176.300	-12.620	
176.400	-0.649	
176.500	2.371	
176.600	-10.800	
176.700	-1.377	
176.800	1.337	
176.900	-0.566	
177.000	-7.976	
177.100	-24.762	
177.200	1.939	
177.300	1.527	
177.400	5.814	
177.500	-12.511	
177.600	-8.653	
177.700	-8.297	
177.800	-3.362	
177.900	-14.644	
178.000	-10.709	
178.100	6.094	
178.200	-18.575	
178.300	-4.121	
178.400	0.288	
178.500	-10.557	
178.600	4.925	
178.700	-0.780	
178.800	-23.592	
178.900	-9.974	
179.000	-8.909	
179.100	-13.833	
179.200	2.507	
179.300	-3.670	
179.400	-4.703	
179.500	3.929	
179.600	0.924	
179.700	-6.631	
179.800	-11.266	
179.900	-16.628	
180.000	-8.623	
180.100	2.211	
180.200	11.019	
180.300	6.487	
180.400	24.873	
180.500	14.427	
180.600	18.233	
180.700	14.636	
180.800	14.270	
180.900	40.573	
181.000	31.221	
181.100	18.729	
181.200	20.808	
181.300	27.282	
181.400	33.561	
181.500	31.433	
181.600	19.181	
181.700	32.731	
181.800	22.315	
181.900	32.278	
182.000	43.743	
182.100	39.221	
182.200	36.140	
182.300	14.288	
182.400	21.993	
182.500	24.510	
182.600	32.692	
182.700	33.176	
182.800	28.192	
182.900	34.845	
183.000	33.214	
183.100	34.030	
183.200	22.354	
183.300	19.580	
183.400	25.112	
183.500	30.984	
183.600	17.343	
183.700	36.841	
183.800	15.245	
183.900	4.667	
184.000	30.615	
184.100	30.967	
184.200	22.218	
184.300	22.781	
184.400	20.402	
184.500	19.753	
184.600	17.613	
184.700	28.016	
184.800	17.631	
184.900	22.644	
185.000	15.643	
185.100	18.469	
185.200	16.757	
185.300	32.269	
185.400	13.311	
185.500	27.210	
185.600	17.048	
185.700	21.273	
185.800	16.665	
185.900	31.175	
186.000	23.627	
186.100	16.753	
186.200	36.172	
186.300	19.407	
186.400	21.840	
186.500	33.264	
186.600	20.889	
186.700	17.781	
186.800	31.353	
186.900	25.446	
187.000	28.500	
187.100	32.023	
187.200	13.509	
187.300	15.574	
187.400	34.538	
187.500	31.232	
187.600	28.290	
187.700	31.615	
187.800	35.084	
187.900	18.725	
188.000	18.855	
188.100	21.720	
188.200	36.860	
188.300	61.005	
188.400	43.768	
188.500	29.561	
188.600	16.355	
188.700	31.410	
188.800	24.857	
188.900	38.877	
189.000	38.859	
189.100	40.934	
189.200	32.410	
189.300	33.003	
189.400	32.407	
189.500	32.829	
189.600	30.425	
189.700	44.008	
189.800	21.156	
189.900	38.683	
190.000	33.015	
190.100	45.186	
190.200	33.848	
190.300	31.547	
190.400	34.094	
190.500	32.962	
190.600	51.327	
190.700	48.544	
190.800	38.799	
190.900	32.487	
191.000	43.126	
191.100	37.024	
191.200	35.862	
191.300	36.638	
191.400	43.274	
191.500	45.638	
191.600	49.685	
191.700	37.275	
191.800	47.952	
191.900	41.853	
192.000	37.130	
192.100	47.515	
192.200	42.646	
192.300	40.228	
192.400	39.452	
192.500	39.670	
192.600	31.146	
192.700	44.532	
192.800	53.790	
192.900	36.610	
193.000	28.961	
193.100	55.654	
193.200	45.990	
193.300	35.718	
193.400	31.722	
193.500	47.132	
193.600	52.013	
193.700	43.895	
193.800	50.865	
193.900	48.699	
194.000	28.822	
194.100	43.661	
194.200	39.187	
194.300	33.724	
194.400	58.238	
194.500	47.106	
194.600	47.335	
194.700	49.239	
194.800	45.105	
194.900	39.566	
195.000	34.539	
195.100	34.697	
195.200	56.108	
195.300	46.470	
195.400	49.574	
195.500	57.300	
195.600	40.275	
195.700	44.589	
195.800	52.904	
195.900	44.701	
196.000	45.847	
196.100	54.751	
196.200	36.002	
196.300	39.460	
196.400	58.479	
196.500	41.786	
196.600	38.911	
196.700	56.638	
196.800	43.931	
196.900	40.393	
197.000	41.465	
197.100	60.808	
197.200	48.259	
197.300	51.472	
197.400	52.877	
197.500	52.588	
197.600	39.426	
197.700	52.793	
197.800	37.522	
197.900	46.421	
198.000	42.664	
198.100	39.058	
198.200	45.688	
198.300	43.167	
198.400	46.528	
198.500	59.555	
198.600	36.641	
198.700	58.006	
198.800	55.912	
198.900	43.950	
199.000	45.739	
199.100	53.329	
199.200	46.913	
199.300	38.280	
199.400	59.358	
199.500	42.681	
199.600	54.058	
199.700	43.438	
199.800	48.706	
199.900	38.722	
200.000	43.149	
200.100	50.190	
200.200	43.155	
200.300	48.350	
200.400	43.817	
200.500	38.061	
200.600	37.155	
200.700	42.805	
200.800	55.925	
200.900	51.768	
201.000	44.593	
201.100	57.762	
201.200	59.343	
201.300	48.060	
201.400	50.284	
201.500	34.616	
201.600	41.034	
201.700	61.766	
201.800	41.722	
201.900	50.859	
202.000	39.720	
202.100	38.917	
202.200	62.869	
202.300	42.238	
202.400	33.016	
202.500	56.424	
202.600	38.544	
202.700	43.732	
202.800	51.650	
202.900	54.385	
203.000	39.129	
203.100	58.549	
203.200	43.706	
203.300	37.120	
203.400	36.405	
203.500	52.138	
203.600	52.968	
203.700	47.636	
203.800	52.009	
203.900	47.071	
204.000	40.141	
204.100	50.010	
204.200	47.697	
204.300	36.580	
204.400	45.827	
204.500	43.928	
204.600	45.756	
204.700	46.975	
204.800	55.567	
204.900	47.245	
205.000	41.966	
205.100	51.444	
205.200	49.944	
205.300	45.773	
205.400	56.787	
205.500	48.740	
205.600	54.969	
205.700	39.877	
205.800	50.290	
205.900	46.142	
206.000	38.247	
206.100	61.237	
206.200	36.325	
206.300	54.089	
206.400	48.515	
206.500	47.423	
206.600	35.361	
206.700	31.452	
206.800	47.919	
206.900	42.380	
207.000	43.293	
207.100	45.029	
207.200	42.628	
207.300	26.826	
207.400	48.389	
207.500	41.460	
207.600	47.911	
207.700	27.352	
207.800	46.887	
207.900	31.142	
208.000	50.752	
208.100	56.012	
208.200	49.333	
208.300	45.722	
208.400	41.978	
208.500	43.269	
208.600	47.943	
208.700	51.453	
208.800	28.606	
208.900	53.915	
209.000	31.361	
209.100	55.673	
209.200	51.317	
209.300	38.930	
209.400	33.547	
209.500	33.074	
209.600	56.287	
209.700	42.484	
209.800	41.751	
209.900	38.742	
210.000	52.235	
210.100	38.024	
210.200	37.636	
210.300	41.741	
210.400	56.361	
210.500	40.761	
210.600	36.555	
210.700	49.709	
210.800	47.371	
210.900	46.308	
211.000	45.186	
211.100	37.143	
211.200	32.954	
211.300	48.008	
211.400	36.692	
211.500	44.722	
211.600	40.646	
211.700	50.197	
211.800	30.670	
211.900	52.596	
212.000	47.431	
212.100	45.788	
212.200	52.516	
212.300	48.699	
212.400	23.349	
212.500	48.835	
212.600	39.556	
212.700	44.578	
212.800	43.312	
212.900	44.699	
213.000	34.344	
213.100	33.101	
213.200	47.083	
213.300	54.877	
213.400	40.342	
213.500	38.982	
213.600	45.669	
213.700	45.956	
213.800	46.597	
213.900	46.587	
214.000	49.578	
214.100	51.156	
214.200	39.079	
214.300	32.906	
214.400	44.477	
214.500	57.256	
214.600	45.539	
214.700	44.296	
214.800	34.545	
214.900	44.441	
215.000	36.899	
215.100	33.644	
215.200	39.134	
215.300	46.228	
215.400	48.057	
215.500	49.096	
215.600	44.821	
215.700	49.395	
215.800	48.361	
215.900	29.887	
216.000	46.389	
216.100	29.093	
216.200	45.467	
216.300	39.524	
216.400	49.773	
216.500	44.654	
216.600	43.132	
216.700	37.590	
216.800	43.834	
216.900	38.522	
217.000	42.959	
217.100	53.582	
217.200	33.034	
217.300	32.870	
217.400	57.831	
217.500	36.414	
217.600	33.764	
217.700	45.409	
217.800	42.065	
217.900	47.169	
218.000	50.499	
218.100	47.894	
218.200	43.662	
218.300	41.751	
218.400	48.418	
218.500	44.941	
218.600	45.312	
218.700	33.362	
218.800	46.586	
218.900	38.689	
219.000	40.966	
219.100	40.132	
219.200	43.730	
219.300	51.892	
219.400	29.411	
219.500	42.875	
219.600	37.793	
219.700	40.475	
219.800	40.516	
219.900	45.187	
220.000	25.259	
220.100	48.411	
220.200	42.131	
220.300	37.263	
220.400	40.880	
220.500	48.832	
220.600	43.087	
220.700	35.119	
220.800	55.836	
220.900	44.401	
221.000	36.099	
221.100	37.121	
221.200	47.856	
221.300	39.201	
221.400	42.231	
221.500	37.232	
221.600	44.587	
221.700	43.476	
221.800	44.938	
221.900	52.702	
222.000	35.971	
222.100	44.427	
222.200	35.515	
222.300	41.070	
222.400	39.845	
222.500	47.944	
222.600	35.404	
222.700	41.068	
222.800	48.239	
222.900	32.479	
223.000	52.088	
223.100	48.465	
223.200	45.802	
223.300	35.869	
223.400	43.627	
223.500	31.979	
223.600	47.699	
223.700	40.195	
223.800	53.702	
223.900	31.597	
224.000	41.277	
224.100	39.375	
224.200	44.091	
224.300	21.823	
224.400	34.821	
224.500	43.190	
224.600	41.866	
224.700	58.201	
224.800	41.149	
224.900	31.240	
225.000	47.059	
225.100	40.731	
225.200	60.322	
225.300	41.295	
225.400	42.456	
225.500	47.927	
225.600	35.172	
225.700	49.355	
225.800	35.333	
225.900	34.536	
226.000	35.460	
226.100	40.780	
226.200	47.112	
226.300	45.347	
226.400	39.854	
226.500	35.457	
226.600	51.474	
226.700	42.725	
226.800	42.233	
226.900	36.106	
227.000	47.661	
227.100	42.493	
227.200	50.938	
227.300	32.402	
227.400	40.853	
227.500	51.185	
227.600	41.691	
227.700	42.042	
227.800	32.760	
227.900	28.956	
228.000	45.362	
228.100	47.899	
228.200	37.619	
228.300	43.075	
228.400	51.748	
228.500	40.505	
228.600	51.939	
228.700	39.073	
228.800	49.752	
228.900	43.066	
229.000	34.898	
229.100	47.060	
229.200	59.702	
229.300	32.473	
229.400	48.094	
229.500	38.880	
229.600	33.849	
229.700	46.935	
229.800	46.017	
229.900	51.147	
230.000	28.206	
230.100	41.530	
230.200	33.979	
230.300	56.768	
230.400	31.595	
230.500	49.262	
230.600	37.027	
230.700	43.002	
230.800	38.364	
230.900	18.868	
231.000	40.420	
231.100	53.231	
231.200	53.793	
231.300	31.577	
231.400	56.054	
231.500	39.363	
231.600	36.790	
231.700	33.436	
231.800	39.985	
231.900	55.040	
232.000	38.422	
232.100	42.720	
232.200	45.906	
232.300	43.086	
232.400	39.068	
232.500	54.428	
232.600	43.724	
232.700	45.027	
232.800	48.878	
232.900	35.723	
233.000	55.991	
233.100	41.759	
233.200	36.631	
233.300	43.456	
233.400	34.996	
233.500	48.620	
233.600	37.334	
233.700	50.149	
233.800	39.201	
233.900	36.949	
234.000	55.753	
234.100	50.028	
234.200	35.765	
234.300	48.340	
234.400	40.749	
234.500	48.519	
234.600	38.800	
234.700	34.816	
234.800	34.366	
234.900	40.176	
235.000	32.532	
235.100	46.553	
235.200	29.277	
235.300	49.362	
235.400	58.564	
235.500	41.547	
235.600	24.188	
235.700	61.326	
235.800	31.406	
235.900	30.740	
236.000	44.639	
236.100	41.513	
236.200	30.544	
236.300	33.144	
236.400	43.965	
236.500	40.054	
236.600	45.563	
236.700	30.533	
236.800	51.552	
236.900	49.807	
237.000	28.716	
237.100	42.300	
237.200	47.477	
237.300	44.330	
237.400	40.908	
237.500	37.315	
237.600	41.529	
237.700	43.227	
237.800	34.522	
237.900	45.082	
238.000	46.713	
238.100	33.070	
238.200	50.399	
238.300	39.734	
238.400	40.276	
238.500	34.126	
238.600	41.738	
238.700	51.420	
238.800	50.354	
238.900	43.386	
239.000	33.041	
239.100	28.867	
239.200	49.135	
239.300	34.873	
239.400	43.191	
239.500	45.153	
239.600	40.717	
239.700	40.246	
239.800	34.594	
239.900	34.609	
240.000	33.731	
240.100	31.230	
240.200	34.943	
240.300	28.960	
240.400	27.186	
240.500	17.605	
240.600	8.872	
240.700	25.395	
240.800	19.608	
240.900	15.698	
241.000	16.353	
241.100	4.084	
241.200	22.623	
241.300	16.976	
241.400	-16.573	
241.500	-15.662	
241.600	-4.758	
241.700	-4.291	
241.800	1.125	
241.900	-8.767	
242.000	-2.020	
242.100	-16.928	
242.200	-8.396	
242.300	-14.599	
242.400	-20.860	
242.500	-19.243	
242.600	-13.370	
242.700	-23.215	
242.800	-7.510	
242.900	-30.264	
243.000	-9.667	
243.100	-13.745	
243.200	-16.650	
243.300	-17.623	
243.400	-27.906	
243.500	-16.924	
243.600	-16.089	
243.700	-15.165	
243.800	-23.869	
243.900	-15.228	
244.000	-24.582	
244.100	-22.196	
244.200	-13.568	
244.300	-17.704	
244.400	-25.437	
244.500	-6.351	
244.600	-20.503	
244.700	-19.531	
244.800	-31.710	
244.900	-33.225	
245.000	-11.789	
245.100	-18.484	
245.200	-18.041	
245.300	-30.079	
245.400	-20.416	
245.500	-15.545	
245.600	-25.025	
245.700	-17.387	
245.800	-25.230	
245.900	-34.556	
246.000	-14.526	
246.100	-27.499	
246.200	-7.052	
246.300	-23.190	
246.400	-3.849	
246.500	-19.999	
246.600	-27.590	
246.700	-14.037	
246.800	-11.225	
246.900	-21.013	
247.000	-14.961	
247.100	-16.642	
247.200	-5.622	
247.300	-9.845	
247.400	-18.845	
247.500	-20.351	
247.600	-11.188	
247.700	-32.696	
247.800	-25.539	
247.900	-13.803	
248.000	-20.181	
248.100	-18.813	
248.200	-27.020	
248.300	-22.986	
248.400	-13.354	
248.500	-27.804	
248.600	-16.897	
248.700	-11.966	
248.800	-8.660	
248.900	-24.347	
249.000	-28.662	
249.100	-21.863	
249.200	-28.795	
249.300	-6.553	
249.400	-17.516	
249.500	-16.783	
249.600	-25.008	
249.700	-9.752	
249.800	-14.091	
249.900	-23.789	
250.000	-28.988	
250.100	-8.679	
250.200	-20.643	
250.300	-18.144	
250.400	-14.310	
250.500	-14.358	
250.600	-19.903	
250.700	-17.352	
250.800	-17.658	
250.900	-12.250	
251.000	-23.812	
251.100	-9.286	
251.200	-9.431	
251.300	-27.089	
251.400	-23.171	
251.500	-22.242	
251.600	-1.193	
251.700	-26.215	
251.800	-6.217	
251.900	-5.749	
252.000	-28.718	
252.100	-16.445	
252.200	-8.195	
252.300	-18.258	
252.400	-16.500	
252.500	-16.775	
252.600	-32.697	
252.700	-16.890	
252.800	-16.851	
252.900	-13.465	
253.000	-15.769	
253.100	-29.959	
253.200	-3.094	
253.300	-0.058	
253.400	-18.259	
253.500	-36.397	
253.600	-6.666	
253.700	-16.200	
253.800	-23.879	
253.900	-7.881	
254.000	-26.002	
254.100	-7.119	
254.200	-26.276	
254.300	-25.989	
254.400	-14.593	
254.500	-16.125	
254.600	-21.873	
254.700	-19.210	
254.800	-7.864	
254.900	-8.855	
255.000	-13.814	
255.100	-19.597	
255.200	-20.750	
255.300	-12.414	
255.400	-39.768	
255.500	-7.838	
255.600	-5.199	
255.700	-15.703	
255.800	-15.657	
255.900	-29.933	
256.000	-20.321	
256.100	-16.526	
256.200	-17.230	
256.300	-11.961	
256.400	-17.571	
256.500	-23.750	
256.600	-20.049	
256.700	-23.348	
256.800	-12.745	
256.900	-29.944	
257.000	-15.865	
257.100	-27.844	
257.200	-12.166	
257.300	-22.878	
257.400	-32.322	
257.500	1.516	
257.600	-6.813	
257.700	-17.681	
257.800	-22.359	
257.900	-31.646	
258.000	-37.852	
258.100	-20.715	
258.200	-10.750	
258.300	-9.077	
258.400	-15.038	
258.500	-29.840	
258.600	-22.460	
258.700	-0.073	
258.800	-32.210	
258.900	-13.651	
259.000	-22.223	
259.100	-17.443	
259.200	-18.778	
259.300	-14.956	
259.400	-10.653	
259.500	-9.533	
259.600	-20.848	
259.700	-20.000	
259.800	-12.588	
259.900	-7.346	
260.000	-12.037	
260.100	-16.138	
260.200	-20.424	
260.300	-15.073	
260.400	-1.515	
260.500	-15.819	
260.600	-18.345	
260.700	-20.527	
260.800	-8.697	
260.900	-28.064	
261.000	-12.210	
261.100	-13.537	
261.200	-4.878	
261.300	-10.485	
261.400	-23.468	
261.500	-14.132	
261.600	-19.899	
261.700	-4.953	
261.800	-16.091	
261.900	-6.334	
262.000	-11.079	
262.100	-13.829	
262.200	-11.871	
262.300	-19.377	
262.400	-9.671	
262.500	-22.540	
262.600	-14.169	
262.700	-18.817	
262.800	-10.995	
262.900	-19.849	
263.000	-15.746	
263.100	-4.731	
263.200	-18.660	
263.300	-14.534	
263.400	-26.569	
263.500	-14.606	
263.600	-18.494	
263.700	-14.009	
263.800	-3.899	
263.900	-37.503	
264.000	-10.772	
264.100	-16.873	
264.200	-11.827	
264.300	-25.609	
264.400	-11.602	
264.500	-30.125	
264.600	-29.268	
264.700	-12.196	
264.800	-22.990	
264.900	-11.668	
265.000	-17.417	
265.100	-15.887	
265.200	4.554	
265.300	-8.716	
265.400	-27.018	
265.500	-21.443	
265.600	-14.852	
265.700	-15.827	
265.800	-24.354	
265.900	-5.502	
266.000	-0.187	
266.100	-23.159	
266.200	-12.237	
266.300	-19.139	
266.400	-18.080	
266.500	-14.795	
266.600	-18.757	
266.700	-7.398	
266.800	-17.057	
266.900	-17.204	
267.000	-2.447	
267.100	-35.801	
267.200	0.497	
267.300	-12.620	
267.400	-14.888	
267.500	-12.493	
267.600	-17.574	
267.700	-18.897	
267.800	-12.023	
267.900	-14.445	
268.000	-21.286	
268.100	-19.245	
268.200	-20.379	
268.300	-19.879	
268.400	-18.465	
268.500	-7.150	
268.600	-13.565	
268.700	-21.887	
268.800	-29.380	
268.900	-23.457	
269.000	-13.303	
269.100	-11.140	
269.200	-17.550	
269.300	-34.699	
269.400	-13.539	
269.500	-2.060	
269.600	5.533	
269.700	-27.712	
269.800	5.448	
269.900	-14.029	
270.000	-26.310	
270.100	-14.929	
270.200	-23.737	
270.300	-7.289	
270.400	-26.520	
270.500	-17.750	
270.600	-18.471	
270.700	-24.976	
270.800	-10.616	
270.900	-3.851	
271.000	-14.057	
271.100	-18.734	
271.200	-9.939	
271.300	-14.137	
271.400	-36.380	
271.500	-23.842	
271.600	-9.417	
271.700	-9.383	
271.800	-8.580	
271.900	-24.792	
272.000	-28.530	
272.100	-16.622	
272.200	-4.985	
272.300	-2.048	
272.400	-34.523	
272.500	-17.335	
272.600	-8.097	
272.700	-13.535	
272.800	-11.944	
272.900	-12.209	
273.000	-7.388	
273.100	-20.767	
273.200	-13.716	
273.300	-16.310	
273.400	-20.564	
273.500	-23.265	
273.600	-13.472	
273.700	-8.939	
273.800	-26.998	
273.900	-4.223	
274.000	-16.870	
274.100	-23.076	
274.200	-3.635	
274.300	-2.676	
274.400	-13.622	
274.500	-28.068	
274.600	-17.644	
274.700	-29.487	
274.800	-15.624	
274.900	-13.146	
275.000	-23.968	
275.100	-16.488	
275.200	-8.053	
275.300	-5.729	
275.400	-15.545	
275.500	-23.729	
275.600	-11.513	
275.700	-18.997	
275.800	-24.815	
275.900	-17.989	
276.000	-13.755	
276.100	-11.086	
276.200	-9.896	
276.300	-8.390	
276.400	-10.793	
276.500	-20.174	
276.600	-10.329	
276.700	-4.477	
276.800	-25.661	
276.900	-16.679	
277.000	-14.850	
277.100	-11.739	
277.200	-30.975	
277.300	1.353	
277.400	-7.796	
277.500	-17.976	
277.600	-15.855	
277.700	-13.947	
277.800	-14.132	
277.900	-18.270	
278.000	-15.433	
278.100	-4.252	
278.200	-16.938	
278.300	-18.982	
278.400	-13.751	
278.500	-16.906	
278.600	-29.850	
278.700	-5.415	
278.800	-21.269	
278.900	-29.977	
279.000	-13.274	
279.100	-6.872	
279.200	-23.441	
279.300	-8.835	
279.400	-23.385	
279.500	-20.194	
279.600	0.972	
279.700	-17.097	
279.800	-3.577	
279.900	-29.172	
280.000	-22.033	
280.100	4.385	
280.200	-4.807	
280.300	-28.922	
280.400	-11.638	
280.500	-3.143	
280.600	-8.962	
280.700	-17.349	
280.800	-22.454	
280.900	-31.419	
281.000	-1.763	
281.100	-21.094	
281.200	-11.192	
281.300	-18.497	
281.400	-13.576	
281.500	-21.631	
281.600	-4.966	
281.700	-11.738	
281.800	-20.331	
281.900	-3.287	
282.000	-21.879	
282.100	-16.763	
282.200	-23.992	
282.300	-16.035	
282.400	-17.224	
282.500	-16.784	
282.600	-10.446	
282.700	-19.150	
282.800	-8.770	
282.900	-20.929	
283.000	-18.154	
283.100	-28.397	
283.200	-12.179	
283.300	-19.086	
283.400	-10.481	
283.500	-11.799	
283.600	-28.309	
283.700	-11.971	
283.800	-13.751	
283.900	-16.967	
284.000	-11.650	
284.100	-17.697	
284.200	-6.729	
284.300	-14.326	
284.400	-19.231	
284.500	-4.174	
284.600	-10.770	
284.700	-6.696	
284.800	-33.764	
284.900	-18.014	
285.000	-14.605	
285.100	-1.634	
285.200	-22.950	
285.300	-16.431	
285.400	-14.015	
285.500	-17.637	
285.600	-7.339	
285.700	-17.650	
285.800	-19.772	
285.900	-2.765	
286.000	-20.173	
286.100	-8.085	
286.200	-21.949	
286.300	-11.548	
286.400	0.077	
286.500	-7.210	
286.600	-11.139	
286.700	-10.497	
286.800	-25.521	
286.900	-7.191	
287.000	-10.320	
287.100	-15.036	
287.200	-29.373	
287.300	-8.471	
287.400	-14.542	
287.500	-21.473	
287.600	-12.108	
287.700	-4.010	
287.800	-11.578	
287.900	-11.294	
288.000	-7.266	
288.100	-18.385	
288.200	-25.008	
288.300	-18.477	
288.400	4.808	
288.500	-12.074	
288.600	-17.075	
288.700	-20.063	
288.800	2.105	
288.900	-24.300	
289.000	-15.532	
289.100	-21.083	
289.200	-24.723	
289.300	-4.469	
289.400	-14.057	
289.500	-14.887	
289.600	-7.942	
289.700	-21.337	
289.800	-8.613	
289.900	-26.429	
290.000	-13.932	
290.100	-7.951	
290.200	-5.898	
290.300	-3.449	
290.400	-22.413	
290.500	-18.206	
290.600	-8.155	
290.700	-21.622	
290.800	-14.475	
290.900	-21.980	
291.000	-6.604	
291.100	-14.763	
291.200	-16.866	
291.300	-8.158	
291.400	-8.096	
291.500	-21.578	
291.600	-28.843	
291.700	-17.310	
291.800	-7.687	
291.900	-10.943	
292.000	-7.005	
292.100	-7.294	
292.200	-18.637	
292.300	-5.752	
292.400	-14.199	
292.500	-9.653	
292.600	-10.510	
292.700	-7.912	
292.800	-18.881	
292.900	-21.996	
293.000	-4.529	
293.100	-17.778	
293.200	-12.316	
293.300	-2.727	
293.400	-10.634	
293.500	-12.509	
293.600	-17.452	
293.700	-18.830	
293.800	-8.058	
293.900	-19.374	
294.000	-19.478	
294.100	-9.959	
294.200	-5.241	
294.300	-17.203	
294.400	-15.637	
294.500	-13.706	
294.600	-17.225	
294.700	-12.309	
294.800	3.845	
294.900	-31.227	
295.000	-12.400	
295.100	-21.430	
295.200	0.154	
295.300	-12.187	
295.400	-6.914	
295.500	-8.977	
295.600	-3.688	
295.700	-8.342	
295.800	-18.303	
295.900	-10.150	
296.000	-6.860	
296.100	-7.147	
296.200	-10.986	
296.300	-16.942	
296.400	-12.038	
296.500	-15.206	
296.600	-23.827	
296.700	-9.354	
296.800	-13.681	
296.900	-15.394	
297.000	-12.540	
297.100	-8.838	
297.200	-6.971	
297.300	-14.254	
297.400	-6.356	
297.500	-23.366	
297.600	-2.184	
297.700	-8.018	
297.800	-8.815	
297.900	-10.853	
298.000	-20.989	
298.100	-22.321	
298.200	9.977	
298.300	-16.578	
298.400	-10.533	
298.500	-8.238	
298.600	-8.047	
298.700	-15.297	
298.800	-5.221	
298.900	-10.364	
299.000	-9.348	
299.100	-19.458	
299.200	-11.270	
299.300	-20.969	
299.400	-2.782	
299.500	-9.926	
299.600	-5.854	
299.700	-0.379	
299.800	-9.029	
299.900	-8.141	
300.000	-0.079	
300.100	-8.962	
300.200	-9.404	
300.300	-34.667	
300.400	-4.333	
300.500	-13.649	
300.600	-7.558	
300.700	-20.577	
300.800	0.924	
300.900	-1.981	
301.000	-10.203	
301.100	-6.907	
301.200	-4.160	
301.300	-4.435	
301.400	-13.443	
301.500	-18.725	
301.600	-23.693	
301.700	-0.435	
301.800	6.000	
301.900	-9.021	
302.000	-14.573	
302.100	-15.478	
302.200	-18.917	
302.300	-5.656	
302.400	5.913	
302.500	-0.307	
302.600	-12.362	
302.700	-14.385	
302.800	-20.241	
302.900	-20.923	
303.000	-15.277	
303.100	-0.729	
303.200	-3.419	
303.300	-3.219	
303.400	-20.573	
303.500	-22.551	
303.600	-12.600	
303.700	-15.877	
303.800	-12.700	
303.900	-11.241	
304.000	-2.452	
304.100	-14.807	
304.200	-15.862	
304.300	-7.238	
304.400	-6.495	
304.500	-5.122	
304.600	-16.862	
304.700	-16.062	
304.800	-23.352	
304.900	-7.431	
305.000	-12.065	
305.100	-9.420	
305.200	-23.562	
305.300	-8.743	
305.400	-11.798	
305.500	-5.154	
305.600	-13.316	
305.700	-0.556	
305.800	-6.010	
305.900	-7.687	
306.000	-13.869	
306.100	-8.445	
306.200	-18.057	
306.300	-8.240	
306.400	-15.484	
306.500	-11.996	
306.600	-15.163	
306.700	-1.662	
306.800	-24.852	
306.900	-12.346	
307.000	-7.052	
307.100	-7.922	
307.200	-16.551	
307.300	-8.827	
307.400	-17.736	
307.500	-8.973	
307.600	-12.865	
307.700	-14.053	
307.800	-14.784	
307.900	-7.595	
308.000	-16.283	
308.100	-0.080	
308.200	-16.201	
308.300	-7.630	
308.400	-3.474	
308.500	-0.418	
308.600	-24.284	
308.700	7.143	
308.800	-4.524	
308.900	-16.074	
309.000	-13.161	
309.100	-9.069	
309.200	1.011	
309.300	-31.575	
309.400	-2.508	
309.500	-10.633	
309.600	-23.073	
309.700	-8.812	
309.800	-7.451	
309.900	-8.598	
310.000	-1.384	
310.100	2.394	
310.200	-16.597	
310.300	1.634	
310.400	-11.175	
310.500	-20.267	
310.600	-9.919	
310.700	-9.890	
310.800	-17.473	
310.900	-8.584	
311.000	-4.950	
311.100	-8.620	
311.200	-18.671	
311.300	-9.412	
311.400	-7.228	
311.500	-6.986	
311.600	-7.184	
311.700	-29.174	
311.800	-10.558	
311.900	-6.363	
312.000	-17.162	
312.100	-3.758	
312.200	-1.218	
312.300	-7.574	
312.400	-4.372	
312.500	-3.296	
312.600	-6.970	
312.700	-12.855	
312.800	-19.370	
312.900	-2.965	
313.000	-5.456	
313.100	-14.081	
313.200	-10.186	
313.300	13.129	
313.400	-9.170	
313.500	-11.700	
313.600	-11.735	
313.700	-18.316	
313.800	2.370	
313.900	-10.850	
314.000	-5.848	
314.100	-23.956	
314.200	-3.627	
314.300	-12.908	
314.400	4.479	
314.500	-7.340	
314.600	-5.343	
314.700	-19.916	
314.800	-6.823	
314.900	-5.143	
315.000	-23.905	
315.100	-6.321	
315.200	-17.155	
315.300	-13.996	
315.400	-5.238	
315.500	-16.960	
315.600	-2.043	
315.700	-10.214	
315.800	8.840	
315.900	-11.562	
316.000	-3.636	
316.100	-13.431	
316.200	-24.268	
316.300	3.731	
316.400	2.014	
316.500	-13.386	
316.600	-10.052	
316.700	-15.137	
316.800	-3.706	
316.900	-0.700	
317.000	-15.245	
317.100	-14.047	
317.200	-3.409	
317.300	-2.791	
317.400	-18.836	
317.500	-3.219	
317.600	-18.669	
317.700	-12.474	
317.800	-3.086	
317.900	-8.009	
318.000	-10.457	
318.100	-7.144	
318.200	-6.342	
318.300	-8.072	
318.400	-18.774	
318.500	-5.237	
318.600	-22.193	
318.700	5.051	
318.800	-4.250	
318.900	-23.094	
319.000	2.087	
319.100	-17.498	
319.200	0.635	
319.300	-10.887	
319.400	-15.579	
319.500	-23.756	
319.600	-0.726	
319.700	-9.759	
319.800	-4.648	
319.900	-16.913	
320.000	-2.511	
320.100	5.679	
320.200	-10.757	
320.300	-10.505	
320.400	-11.016	
320.500	-20.871	
320.600	-3.086	
320.700	-1.230	
320.800	-13.176	
320.900	-4.072	
321.000	-7.308	
321.100	-7.873	
321.200	-25.478	
321.300	-2.298	
321.400	-4.444	
321.500	-6.192	
321.600	1.044	
321.700	-11.829	
321.800	-11.198	
321.900	-7.240	
322.000	-21.203	
322.100	-11.510	
322.200	-5.021	
322.300	-8.667	
322.400	-14.335	
322.500	-4.093	
322.600	-17.920	
322.700	-14.325	
322.800	-6.621	
322.900	-9.494	
323.000	-2.754	
323.100	-6.604	
323.200	3.704	
323.300	-4.577	
323.400	-9.563	
323.500	-3.097	
323.600	-12.258	
323.700	-9.757	
323.800	-3.285	
323.900	-26.748	
324.000	-9.012	
324.100	-13.245	
324.200	-13.845	
324.300	-1.310	
324.400	-23.561	
324.500	-2.338	
324.600	-10.820	
324.700	-2.467	
324.800	5.513	
324.900	-9.544	
325.000	-9.360	
325.100	-3.632	
325.200	-4.447	
325.300	3.439	
325.400	-25.152	
325.500	1.042	
325.600	-9.326	
325.700	-13.825	
325.800	-17.061	
325.900	-6.968	
326.000	-9.286	
326.100	1.257	
326.200	-10.189	
326.300	-8.672	
326.400	-10.226	
326.500	-12.682	
326.600	-5.313	
326.700	-0.536	
326.800	1.425	
326.900	-15.168	
327.000	-25.826	
327.100	-3.090	
327.200	-16.663	
327.300	-10.614	
327.400	9.575	
327.500	-10.924	
327.600	-4.425	
327.700	-13.004	
327.800	-1.381	
327.900	-25.825	
328.000	-3.773	
328.100	-10.132	
328.200	-9.603	
328.300	-11.782	
328.400	-5.518	
328.500	-6.849	
328.600	-17.075	
328.700	-10.871	
328.800	-20.625	
328.900	-7.876	
329.000	-2.182	
329.100	-4.593	
329.200	1.662	
329.300	-21.990	
329.400	-4.343	
329.500	-6.552	
329.600	-6.898	
329.700	-13.528	
329.800	-11.744	
329.900	-15.478	
330.000	-6.703	
330.100	10.459	
330.200	1.780	
330.300	15.853	
330.400	9.254	
330.500	17.521	
330.600	14.373	
330.700	21.850	
330.800	33.597	
330.900	33.616	
331.000	24.852	
331.100	28.019	
331.200	34.300	
331.300	35.194	
331.400	18.379	
331.500	32.885	
331.600	35.966	
331.700	28.889	
331.800	36.761	
331.900	38.042	
332.000	37.301	
332.100	26.692	
332.200	40.865	
332.300	34.384	
332.400	39.707	
332.500	17.390	
332.600	24.180	
332.700	24.245	
332.800	40.172	
332.900	21.893	
333.000	21.060	
333.100	37.509	
333.200	24.285	
333.300	29.885	
333.400	28.722	
333.500	29.272	
333.600	14.725	
333.700	27.875	
333.800	35.107	
333.900	21.068	
334.000	16.976	
334.100	26.096	
334.200	22.674	
334.300	22.092	
334.400	20.864	
334.500	9.686	
334.600	17.692	
334.700	16.458	
334.800	26.031	
334.900	3.926	
335.000	34.310	
335.100	22.560	
335.200	28.282	
335.300	20.832	
335.400	-0.585	
335.500	35.896	
335.600	17.670	
335.700	13.816	
335.800	20.560	
335.900	39.389	
336.000	24.487	
336.100	18.694	
336.200	18.766	
336.300	26.538	
336.400	22.420	
336.500	14.484	
336.600	23.702	
336.700	6.766	
336.800	21.873	
336.900	26.604	
337.000	25.012	
337.100	21.768	
337.200	37.500	
337.300	23.546	
337.400	17.664	
337.500	26.478	
337.600	31.629	
337.700	19.237	
337.800	21.273	
337.900	25.692	
338.000	21.212	
338.100	43.395	
338.200	38.150	
338.300	32.531	
338.400	29.410	
338.500	28.612	
338.600	7.724	
338.700	26.333	
338.800	20.730	
338.900	37.523	
339.000	34.002	
339.100	29.741	
339.200	32.006	
339.300	40.096	
339.400	28.817	
339.500	24.803	
339.600	33.877	
339.700	26.112	
339.800	42.298	
339.900	24.800	
340.000	29.272	
340.100	28.430	
340.200	42.004	
340.300	22.874	
340.400	37.489	
340.500	53.532	
340.600	34.947	
340.700	33.074	
340.800	34.295	
340.900	42.948	
341.000	40.373	
341.100	29.814	
341.200	33.145	
341.300	35.967	
341.400	39.520	
341.500	43.873	
341.600	38.031	
341.700	38.643	
341.800	18.994	
341.900	44.721	
342.000	38.771	
342.100	39.239	
342.200	41.499	
342.300	45.893	
342.400	34.552	
342.500	44.935	
342.600	34.021	
342.700	41.651	
342.800	41.875	
342.900	46.770	
343.000	39.108	
343.100	35.520	
343.200	45.770	
343.300	50.222	
343.400	41.401	
343.500	46.466	
343.600	36.727	
343.700	36.286	
343.800	48.550	
343.900	46.010	
344.000	43.729	
344.100	38.189	
344.200	33.183	
344.300	44.918	
344.400	38.935	
344.500	48.460	
344.600	33.392	
344.700	49.072	
344.800	44.902	
344.900	47.557	
345.000	49.513	
345.100	47.775	
345.200	35.905	
345.300	53.020	
345.400	42.309	
345.500	42.248	
345.600	37.977	
345.700	35.083	
345.800	55.542	
345.900	51.637	
346.000	47.973	
346.100	47.109	
346.200	38.663	
346.300	43.123	
346.400	47.759	
346.500	38.860	
346.600	45.905	
346.700	57.501	
346.800	39.341	
346.900	48.844	
347.000	48.816	
347.100	38.254	
347.200	43.034	
347.300	44.638	
347.400	44.905	
347.500	55.852	
347.600	44.289	
347.700	52.156	
347.800	38.773	
347.900	50.481	
348.000	45.299	
348.100	57.932	
348.200	44.901	
348.300	54.982	
348.400	52.233	
348.500	60.896	
348.600	44.376	
348.700	41.175	
348.800	57.059	
348.900	36.887	
349.000	48.206	
349.100	32.809	
349.200	70.212	
349.300	60.192	
349.400	40.896	
349.500	51.161	
349.600	35.680	
349.700	66.866	
349.800	47.391	
349.900	35.988	
350.000	40.714	
350.100	51.704	
350.200	61.925	
350.300	43.475	
350.400	42.012	
350.500	48.437	
350.600	49.328	
350.700	52.129	
350.800	41.297	
350.900	47.290	
351.000	54.369	
351.100	50.902	
351.200	51.591	
351.300	41.351	
351.400	49.738	
351.500	44.457	
351.600	41.654	
351.700	38.909	
351.800	52.229	
351.900	53.068	
352.000	51.206	
352.100	47.023	
352.200	56.373	
352.300	34.357	
352.400	48.338	
352.500	53.724	
352.600	41.191	
352.700	42.033	
352.800	50.017	
352.900	28.771	
353.000	64.566	
353.100	46.492	
353.200	56.644	
353.300	43.677	
353.400	51.773	
353.500	52.312	
353.600	47.873	
353.700	33.005	
353.800	47.179	
353.900	51.867	
354.000	50.515	
354.100	56.648	
354.200	54.550	
354.300	50.811	
354.400	43.413	
354.500	53.050	
354.600	45.276	
354.700	51.659	
354.800	42.494	
354.900	46.780	
355.000	54.542	
355.100	42.029	
355.200	40.330	
355.300	56.049	
355.400	42.256	
355.500	44.995	
355.600	33.838	
355.700	56.923	
355.800	44.356	
355.900	33.526	
356.000	48.038	
356.100	37.318	
356.200	34.157	
356.300	44.437	
356.400	46.162	
356.500	45.603	
356.600	42.721	
356.700	56.980	
356.800	48.201	
356.900	39.640	
357.000	46.786	
357.100	40.291	
357.200	49.750	
357.300	30.594	
357.400	58.709	
357.500	52.448	
357.600	47.356	
357.700	42.941	
357.800	52.478	
357.900	41.286	
358.000	37.088	
358.100	51.188	
358.200	53.310	
358.300	42.671	
358.400	34.455	
358.500	44.789	
358.600	46.557	
358.700	43.106	
358.800	45.958	
358.900	40.906	
359.000	48.673	
359.100	45.966	
359.200	60.830	
359.300	35.474	
359.400	56.666	
359.500	38.943	
359.600	43.796	
359.700	32.575	
359.800	49.078	
359.900	35.698	
360.000	40.315	
360.100	67.221	
360.200	56.405	
360.300	53.647	
360.400	45.093	
360.500	40.890	
360.600	49.369	
360.700	39.948	
360.800	42.473	
360.900	50.725	
361.000	60.926	
361.100	40.787	
361.200	47.854	
361.300	52.576	
361.400	35.434	
361.500	38.288	
361.600	38.458	
361.700	46.280	
361.800	48.378	
361.900	44.147	
362.000	46.439	
362.100	20.526	
362.200	48.817	
362.300	44.980	
362.400	49.272	
362.500	40.976	
362.600	51.065	
362.700	43.453	
362.800	40.892	
362.900	52.441	
363.000	45.534	
363.100	46.248	
363.200	34.830	
363.300	40.475	
363.400	46.959	
363.500	41.527	
363.600	45.611	
363.700	41.687	
363.800	40.110	
363.900	52.291	
364.000	36.466	
364.100	53.498	
364.200	40.969	
364.300	35.875	
364.400	38.613	
364.500	34.303	
364.600	41.557	
364.700	34.188	
364.800	55.450	
364.900	51.176	
365.000	47.118	
365.100	49.152	
365.200	49.718	
365.300	47.662	
365.400	38.987	
365.500	39.980	
365.600	46.633	
365.700	38.509	
365.800	43.606	
365.900	43.673	
366.000	48.728	
366.100	45.351	
366.200	44.099	
366.300	37.022	
366.400	39.535	
366.500	24.428	
366.600	57.880	
366.700	46.599	
366.800	52.983	
366.900	47.072	
367.000	50.625	
367.100	39.730	
367.200	38.529	
367.300	48.807	
367.400	41.589	
367.500	47.989	
367.600	42.100	
367.700	38.261	
367.800	54.851	
367.900	40.607	
368.000	28.231	
368.100	52.696	
368.200	46.858	
368.300	39.199	
368.400	29.156	
368.500	46.986	
368.600	37.239	
368.700	53.187	
368.800	44.248	
368.900	33.223	
369.000	51.728	
369.100	40.951	
369.200	27.745	
369.300	50.853	
369.400	47.332	
369.500	37.570	
369.600	32.742	
369.700	57.353	
369.800	46.021	
369.900	34.577	
370.000	52.116	
370.100	56.116	
370.200	46.821	
370.300	49.125	
370.400	38.741	
370.500	49.966	
370.600	44.740	
370.700	30.203	
370.800	44.768	
370.900	33.852	
371.000	47.934	
371.100	41.654	
371.200	31.993	
371.300	45.227	
371.400	22.669	
371.500	46.502	
371.600	40.785	
371.700	50.286	
371.800	31.601	
371.900	43.964	
372.000	40.915	
372.100	57.893	
372.200	49.914	
372.300	39.054	
372.400	49.060	
372.500	43.089	
372.600	40.175	
372.700	39.618	
372.800	38.660	
372.900	50.403	
373.000	50.659	
373.100	51.733	
373.200	31.595	
373.300	55.210	
373.400	42.713	
373.500	36.947	
373.600	33.259	
373.700	47.471	
373.800	39.285	
373.900	54.715	
374.000	32.879	
374.100	34.036	
374.200	37.984	
374.300	65.373	
374.400	40.582	
374.500	48.044	
374.600	40.342	
374.700	39.909	
374.800	36.745	
374.900	45.901	
375.000	48.947	
375.100	46.290	
375.200	34.853	
375.300	41.562	
375.400	43.226	
375.500	31.459	
375.600	36.032	
375.700	47.515	
375.800	42.923	
375.900	48.063	
376.000	54.592	
376.100	46.121	
376.200	36.463	
376.300	50.320	
376.400	41.385	
376.500	41.872	
376.600	47.559	
376.700	41.406	
376.800	45.898	
376.900	32.592	
377.000	41.717	
377.100	45.269	
377.200	44.032	
377.300	44.965	
377.400	46.240	
377.500	29.996	
377.600	35.771	
377.700	49.745	
377.800	45.953	
377.900	39.456	
378.000	42.505	
378.100	34.058	
378.200	42.376	
378.300	41.647	
378.400	46.289	
378.500	33.176	
378.600	57.284	
378.700	49.561	
378.800	36.265	
378.900	43.102	
379.000	41.999	
379.100	44.641	
379.200	39.883	
379.300	43.237	
379.400	42.547	
379.500	50.768	
379.600	42.399	
379.700	45.427	
379.800	50.828	
379.900	39.646	
380.000	48.539	
380.100	51.774	
380.200	42.862	
380.300	38.071	
380.400	51.425	
380.500	47.810	
380.600	34.219	
380.700	58.640	
380.800	48.442	
380.900	26.518	
381.000	43.305	
381.100	46.690	
381.200	45.316	
381.300	41.292	
381.400	43.688	
381.500	55.537	
381.600	46.751	
381.700	51.502	
381.800	42.099	
381.900	18.844	
382.000	59.909	
382.100	39.168	
382.200	37.258	
382.300	55.580	
382.400	38.239	
382.500	32.667	
382.600	36.308	
382.700	43.687	
382.800	36.667	
382.900	38.509	
383.000	52.371	
383.100	20.999	
383.200	33.511	
383.300	55.734	
383.400	30.190	
383.500	34.642	
383.600	45.084	
383.700	44.794	
383.800	47.426	
383.900	29.404	
384.000	53.848	
384.100	33.856	
384.200	52.329	
384.300	45.787	
384.400	38.724	
384.500	45.178	
384.600	41.404	
384.700	32.488	
384.800	51.621	
384.900	41.766	
385.000	41.358	
385.100	45.119	
385.200	42.478	
385.300	50.524	
385.400	46.497	
385.500	34.497	
385.600	40.759	
385.700	45.895	
385.800	30.153	
385.900	41.669	
386.000	35.199	
386.100	43.561	
386.200	24.752	
386.300	43.447	
386.400	43.961	
386.500	50.532	
386.600	47.589	
386.700	36.636	
386.800	52.740	
386.900	37.965	
387.000	47.169	
387.100	38.776	
387.200	45.274	
387.300	34.175	
387.400	45.422	
387.500	39.253	
387.600	48.618	
387.700	38.122	
387.800	46.750	
387.900	26.842	
388.000	53.903	
388.100	49.413	
388.200	38.078	
388.300	43.587	
388.400	44.953	
388.500	40.223	
388.600	32.239	
388.700	47.800	
388.800	41.412	
388.900	30.510	
389.000	36.508	
389.100	58.525	
389.200	22.589	
389.300	38.060	
389.400	58.753	
389.500	34.360	
389.600	40.876	
389.700	51.362	
389.800	55.430	
389.900	47.584	
390.000	31.958	
390.100	37.869	
390.200	39.325	
390.300	38.237	
390.400	32.203	
390.500	23.194	
390.600	26.582	
390.700	14.875	
390.800	14.021	
390.900	8.983	
391.000	22.366	
391.100	6.869	
391.200	-6.756	
391.300	9.921	
391.400	-2.024	
391.500	1.085	
391.600	5.948	
391.700	-11.938	
391.800	-9.345	
391.900	-4.080	
392.000	-2.334	
392.100	-12.122	
392.200	-3.301	
392.300	-15.861	
392.400	-26.231	
392.500	-20.889	
392.600	-6.731	
392.700	-32.052	
392.800	-12.113	
392.900	-22.724	
393.000	-23.802	
393.100	-25.712	
393.200	-17.409	
393.300	-14.870	
393.400	-12.723	
393.500	-18.056	
393.600	-29.978	
393.700	-27.033	
393.800	-22.662	
393.900	-24.778	
394.000	-38.309	
394.100	-17.162	
394.200	-11.073	
394.300	-21.059	
394.400	-27.695	
394.500	-18.043	
394.600	-8.897	
394.700	-19.735	
394.800	-17.058	
394.900	-46.441	
395.000	-21.022	
395.100	-26.710	
395.200	-20.896	
395.300	-21.941	
395.400	-23.985	
395.500	-17.071	
395.600	-31.953	
395.700	-25.724	
395.800	-26.733	
395.900	-14.718	
396.000	-25.684	
396.100	-27.064	
396.200	-28.462	
396.300	-20.008	
396.400	-23.341	
396.500	-19.771	
396.600	-17.754	
396.700	-14.140	
396.800	-24.971	
396.900	-28.997	
397.000	-23.039	
397.100	-28.613	
397.200	-13.781	
397.300	-12.573	
397.400	-18.405	
397.500	-30.367	
397.600	-19.175	
397.700	-18.689	
397.800	-16.267	
397.900	-39.514	
398.000	-20.057	
398.100	-21.546	
398.200	-15.232	
398.300	-20.069	
398.400	-17.547	
398.500	-21.555	
398.600	-12.839	
398.700	-19.050	
398.800	-17.362	
398.900	-25.383	
399.000	-6.447	
399.100	-14.772	
399.200	-18.974	
399.300	-15.620	
399.400	-27.506	
399.500	-11.285	
399.600	-24.842	
399.700	-18.890	
399.800	-7.497	
399.900	-31.414	
400.000	-19.698	
400.100	-19.324	
400.200	-9.993	
400.300	-18.670	
400.400	-6.751	
400.500	-37.737	
400.600	-23.031	
400.700	-28.687	
400.800	-11.207	
400.900	-21.412	
401.000	-20.933	
401.100	-22.753	
401.200	-20.009	
401.300	-15.196	
401.400	-12.226	
401.500	-22.049	
401.600	-6.306	
401.700	-23.012	
401.800	-31.034	
401.900	-18.686	
402.000	-15.462	
402.100	-20.070	
402.200	-8.105	
402.300	-12.235	
402.400	-18.535	
402.500	-21.118	
402.600	-24.967	
402.700	-11.482	
402.800	-12.863	
402.900	-22.872	
403.000	-19.976	
403.100	-22.696	
403.200	-7.793	
403.300	-22.068	
403.400	-19.464	
403.500	-16.268	
403.600	-23.922	
403.700	-25.592	
403.800	-11.603	
403.900	-22.057	
404.000	-19.960	
404.100	-30.018	
404.200	-4.435	
404.300	-18.716	
404.400	-17.710	
404.500	-19.251	
404.600	-15.680	
404.700	-16.762	
404.800	-12.316	
404.900	-16.471	
405.000	-25.534	
405.100	-18.400	
405.200	-19.101	
405.300	-4.252	
405.400	-9.890	
405.500	-17.958	
405.600	-11.592	
405.700	-17.517	
405.800	-27.042	
405.900	-11.452	
406.000	-24.862	
406.100	-13.335	
406.200	-25.249	
406.300	-18.165	
406.400	-12.300	
406.500	-14.320	
406.600	-7.534	
406.700	-11.952	
406.800	-25.357	
406.900	-23.628	
407.000	-8.802	
407.100	-20.445	
407.200	-21.237	
407.300	-13.134	
407.400	-33.840	
407.500	-4.292	
407.600	-21.584	
407.700	-11.683	
407.800	-17.481	
407.900	-15.785	
408.000	-26.321	
408.100	-11.765	
408.200	-13.649	
408.300	-22.618	
408.400	-21.648	
408.500	-17.701	
408.600	-8.017	
408.700	-8.831	
408.800	-23.855	
408.900	-21.348	
409.000	-12.792	
409.100	-17.711	
409.200	-17.544	
409.300	-22.601	
409.400	-22.183	
409.500	-24.053	
409.600	-22.911	
409.700	-16.325	
409.800	-6.238	
409.900	-18.884	
410.000	-31.031	
410.100	-0.018	
410.200	-24.229	
410.300	-28.228	
410.400	-15.201	
410.500	-15.360	
410.600	-20.059	
410.700	-23.795	
410.800	-36.030	
410.900	-18.646	
411.000	-17.345	
411.100	-16.630	
411.200	-15.469	
411.300	-6.938	
411.400	-20.098	
411.500	-19.531	
411.600	-13.131	
411.700	-18.652	
411.800	-25.992	
411.900	-17.208	
412.000	-15.350	
412.100	-30.521	
412.200	-15.868	
412.300	-16.314	
412.400	-18.687	
412.500	-12.343	
412.600	-29.193	
412.700	-15.612	
412.800	-19.011	
412.900	-17.505	
413.000	-8.339	
413.100	-21.515	
413.200	-15.912	
413.300	-25.774	
413.400	-11.712	
413.500	-7.861	
413.600	-4.339	
413.700	-28.106	
413.800	-30.505	
413.900	-8.761	
414.000	-5.137	
414.100	-22.552	
414.200	-9.018	
414.300	-13.287	
414.400	-16.492	
414.500	-14.685	
414.600	-21.336	
414.700	-16.597	
414.800	-20.046	
414.900	-18.591	
415.000	-24.037	
415.100	-14.589	
415.200	-10.492	
415.300	-11.594	
415.400	-18.243	
415.500	-7.656	
415.600	-23.955	
415.700	-21.002	
415.800	-2.826	
415.900	-5.485	
416.000	-23.077	
416.100	-21.668	
416.200	-14.658	
416.300	-8.829	
416.400	-16.430	
416.500	-31.113	
416.600	-24.676	
416.700	-16.188	
416.800	-20.556	
416.900	-22.269	
417.000	-35.621	
417.100	-21.124	
417.200	-22.303	
417.300	-13.759	
417.400	-30.829	
417.500	-10.911	
417.600	-3.176	
417.700	8.740	
417.800	-21.202	
417.900	-28.759	
418.000	-28.423	
418.100	-21.697	
418.200	-1.121	
418.300	-17.309	
418.400	-9.274	
418.500	-17.420	
418.600	-16.235	
418.700	-7.794	
418.800	-32.827	
418.900	-0.348	
419.000	-30.884	
419.100	-18.525	
419.200	-16.604	
419.300	-16.263	
419.400	-25.851	
419.500	-23.870	
419.600	-7.919	
419.700	-11.912	
419.800	-6.277	
419.900	-26.344	
420.000	-15.659	
420.100	-12.989	
420.200	-3.487	
420.300	-11.055	
420.400	-44.855	
420.500	-16.437	
420.600	-21.904	
420.700	-16.940	
420.800	-3.208	
420.900	-19.441	
421.000	-11.244	
421.100	-29.205	
421.200	-14.752	
421.300	-14.135	
421.400	-17.223	
421.500	-15.035	
421.600	-22.427	
421.700	-14.184	
421.800	-13.908	
421.900	-17.347	
422.000	-14.458	
422.100	-8.819	
422.200	-27.932	
422.300	-19.983	
422.400	-9.392	
422.500	-12.500	
422.600	-16.246	
422.700	-21.246	
422.800	-23.997	
422.900	-10.830	
423.000	-19.067	
423.100	-23.772	
423.200	-23.747	
423.300	-16.061	
423.400	-15.718	
423.500	-25.167	
423.600	-14.433	
423.700	-12.203	
423.800	-15.504	
423.900	-21.339	
424.000	-32.655	
424.100	-12.357	
424.200	-25.624	
424.300	-25.467	
424.400	-5.619	
424.500	-17.531	
424.600	-18.658	
424.700	-22.335	
424.800	-18.719	
424.900	-17.991	
425.000	-15.655	
425.100	-16.007	
425.200	-32.905	
425.300	-15.904	
425.400	-10.693	
425.500	-3.983	
425.600	-14.351	
425.700	-12.996	
425.800	-13.756	
425.900	-5.601	
426.000	-21.782	
426.100	-19.725	
426.200	-22.742	
426.300	-13.771	
426.400	-19.963	
426.500	-17.464	
426.600	-21.519	
426.700	-5.254	
426.800	-15.811	
426.900	-22.351	
427.000	-17.683	
427.100	-17.378	
427.200	-23.747	
427.300	-17.503	
427.400	-16.120	
427.500	-16.728	
427.600	-16.926	
427.700	-18.999	
427.800	-9.355	
427.900	-21.540	
428.000	-14.833	
428.100	-19.229	
428.200	-24.870	
428.300	-8.641	
428.400	-13.416	
428.500	-26.531	
428.600	-15.370	
428.700	-4.876	
428.800	-26.130	
428.900	-25.340	
429.000	-18.589	
429.100	-18.272	
429.200	-15.070	
429.300	-14.593	
429.400	-20.679	
429.500	-12.131	
429.600	-12.171	
429.700	-21.455	
429.800	-5.774	
429.900	-34.063	
430.000	8.038	
430.100	-13.789	
430.200	-20.015	
430.300	-19.644	
430.400	-4.786	
430.500	7.248	
430.600	-10.852	
430.700	-12.880	
430.800	-17.589	
430.900	-4.558	
431.000	-9.854	
431.100	-11.829	
431.200	-19.135	
431.300	-4.131	
431.400	-12.939	
431.500	-22.865	
431.600	-35.280	
431.700	-20.341	
431.800	-11.255	
431.900	-11.495	
432.000	-4.798	
432.100	-25.581	
432.200	-12.238	
432.300	-26.833	
432.400	-5.901	
432.500	-5.425	
432.600	-28.172	
432.700	-9.068	
432.800	-20.463	
432.900	-18.375	
433.000	-12.835	
433.100	-19.693	
433.200	-20.185	
433.300	-2.493	
433.400	-14.257	
433.500	-11.169	
433.600	-6.127	
433.700	-19.622	
433.800	-9.687	
433.900	-9.251	
434.000	-23.159	
434.100	-18.907	
434.200	-16.209	
434.300	-13.079	
434.400	-23.990	
434.500	-22.521	
434.600	-13.014	
434.700	-15.800	
434.800	-20.402	
434.900	-3.379	
435.000	-9.984	
435.100	-17.991	
435.200	-23.318	
435.300	-13.789	
435.400	-7.062	
435.500	-17.586	
435.600	-11.415	
435.700	-11.076	
435.800	-13.980	
435.900	-28.267	
436.000	-20.290	
436.100	-11.126	
436.200	-11.751	
436.300	-25.414	
436.400	-12.826	
436.500	-18.662	
436.600	-5.465	
436.700	-2.087	
436.800	0.439	
436.900	-17.950	
437.000	-3.469	
437.100	-11.685	
437.200	-25.045	
437.300	-18.371	
437.400	-12.084	
437.500	-5.595	
437.600	-11.632	
437.700	-16.023	
437.800	-21.293	
437.900	-15.500	
438.000	-25.265	
438.100	-22.192	
438.200	-7.648	
438.300	-12.561	
438.400	-7.711	
438.500	-13.259	
438.600	-12.062	
438.700	-10.040	
438.800	-18.583	
438.900	-14.952	
439.000	-10.363	
439.100	-22.854	
439.200	-10.128	
439.300	-9.261	
439.400	-21.364	
439.500	-11.482	
439.600	-23.652	
439.700	-10.558	
439.800	-6.841	
439.900	-24.369	
440.000	8.149	
440.100	-15.051	
440.200	-3.093	
440.300	-8.177	
440.400	-12.781	
440.500	-10.977	
440.600	-10.659	
440.700	-11.980	
440.800	-15.858	
440.900	-10.363	
441.000	-28.356	
441.100	-16.494	
441.200	-4.426	
441.300	-15.527	
441.400	-13.872	
441.500	-14.658	
441.600	-23.424	
441.700	-12.424	
441.800	-9.011	
441.900	-12.964	
442.000	-14.889	
442.100	-12.047	
442.200	-16.894	
442.300	-3.171	
442.400	-11.711	
442.500	-13.507	
442.600	-14.053	
442.700	-21.687	
442.800	-5.355	
442.900	-15.199	
443.000	-2.510	
443.100	-0.717	
443.200	-33.885	
443.300	-20.899	
443.400	-17.790	
443.500	-5.261	
443.600	-16.980	
443.700	-5.501	
443.800	-10.829	
443.900	-30.506	
444.000	-16.173	
444.100	-31.295	
444.200	-5.261	
444.300	-0.364	
444.400	-14.005	
444.500	-1.272	
444.600	-27.186	
444.700	4.729	
444.800	-16.796	
444.900	-15.538	
445.000	-13.502	
445.100	-22.037	
445.200	-19.425	
445.300	-14.172	
445.400	-4.375	
445.500	-2.377	
445.600	-20.394	
445.700	-19.561	
445.800	-4.119	
445.900	-16.908	
446.000	-19.303	
446.100	-19.090	
446.200	-12.365	
446.300	-15.893	
446.400	-19.436	
446.500	-11.397	
446.600	-2.254	
446.700	-19.396	
446.800	-10.369	
446.900	-16.371	
447.000	-14.009	
447.100	-17.098	
447.200	-11.108	
447.300	-7.934	
447.400	-17.037	
447.500	-12.648	
447.600	-14.971	
447.700	-18.658	
447.800	-6.085	
447.900	-18.110	
448.000	-3.827	
448.100	-8.647	
448.200	-14.439	
448.300	-25.856	
448.400	-9.299	
448.500	-9.613	
448.600	-1.290	
448.700	-8.308	
448.800	-16.747	
448.900	-15.930	
449.000	-8.562	
449.100	-14.639	
449.200	-9.088	
449.300	3.035	
449.400	-14.044	
449.500	-19.579	
449.600	-11.115	
449.700	-14.218	
449.800	-0.568	
449.900	-29.477	
450.000	-8.123	
450.100	-12.133	
450.200	-8.575	
450.300	-8.926	
450.400	-7.130	
450.500	-17.950	
450.600	-11.856	
450.700	-7.277	
450.800	-26.078	
450.900	-7.939	
451.000	-10.652	
451.100	-5.459	
451.200	-9.212	
451.300	-11.131	
451.400	-14.836	
451.500	-1.619	
451.600	-9.146	
451.700	-9.651	
451.800	-28.323	
451.900	-26.849	
452.000	-9.536	
452.100	-12.485	
452.200	-20.094	
452.300	-21.652	
452.400	-1.939	
452.500	-3.415	
452.600	-11.569	
452.700	-7.749	
452.800	-15.239	
452.900	-20.063	
453.000	-17.293	
453.100	-12.150	
453.200	-22.662	
453.300	-19.875	
453.400	0.388	
453.500	-13.258	
453.600	-9.459	
453.700	-19.459	
453.800	-11.207	
453.900	-0.140	
454.000	2.576	
454.100	-25.806	
454.200	2.642	
454.300	-1.415	
454.400	-6.370	
454.500	-8.467	
454.600	-24.528	
454.700	-18.427	
454.800	-0.473	
454.900	-10.686	
455.000	-13.922	
455.100	-12.888	
455.200	-14.875	
455.300	-12.566	
455.400	1.493	
455.500	-7.848	
455.600	-1.631	
455.700	-14.777	
455.800	-10.730	
455.900	-26.542	
456.000	-20.711	
456.100	-21.127	
456.200	3.996	
456.300	-7.679	
456.400	-8.650	
456.500	-16.007	
456.600	-8.753	
456.700	-15.069	
456.800	-30.455	
456.900	-18.729	
457.000	-15.200	
457.100	-17.203	
457.200	-4.665	
457.300	-9.603	
457.400	-16.827	
457.500	-12.945	
457.600	3.284	
457.700	-8.945	
457.800	-9.909	
457.900	-21.316	
458.000	-16.316	
458.100	-14.205	
458.200	-8.460	
458.300	0.819	
458.400	-1.264	
458.500	-24.356	
458.600	-15.880	
458.700	1.732	
458.800	-6.735	
458.900	-13.914	
459.000	-10.478	
459.100	-3.023	
459.200	-4.681	
459.300	-18.117	
459.400	-7.296	
459.500	-11.209	
459.600	-12.205	
459.700	3.631	
459.800	-3.731	
459.900	-4.360	
460.000	-21.012	
460.100	-7.084	
460.200	-29.430	
460.300	-11.128	
460.400	-9.870	
460.500	-2.224	
460.600	-9.427	
460.700	-21.948	
460.800	-20.262	
460.900	-5.637	
461.000	-15.539	
461.100	-18.729	
461.200	3.458	
461.300	-3.261	
461.400	-18.239	
461.500	9.690	
461.600	-22.526	
461.700	-6.751	
461.800	-12.937	
461.900	-8.442	
462.000	-11.331	
462.100	-20.767	
462.200	-9.956	
462.300	-14.168	
462.400	0.201	
462.500	-21.532	
462.600	-8.217	
462.700	-21.910	
462.800	-12.990	
462.900	-2.012	
463.000	-5.561	
463.100	-15.312	
463.200	-12.557	
463.300	1.617	
463.400	-5.348	
463.500	8.162	
463.600	-21.465	
463.700	-22.598	
463.800	-9.500	
463.900	-3.569	
464.000	-17.827	
464.100	-19.149	
464.200	-2.730	
464.300	-9.574	
464.400	-4.118	
464.500	-16.801	
464.600	0.893	
464.700	-8.773	
464.800	-7.822	
464.900	-11.099	
465.000	-5.673	
465.100	-14.028	
465.200	-8.349	
465.300	-8.707	
465.400	-1.362	
465.500	-14.974	
465.600	-11.093	
465.700	-3.710	
465.800	-14.057	
465.900	-3.135	
466.000	-13.383	
466.100	-13.068	
466.200	-2.991	
466.300	-2.334	
466.400	-6.327	
466.500	-18.961	
466.600	-10.096	
466.700	-13.591	
466.800	-15.034	
466.900	-1.320	
467.000	-16.986	
467.100	-23.240	
467.200	5.465	
467.300	-0.032	
467.400	-18.145	
467.500	-9.232	
467.600	-8.111	
467.700	-6.014	
467.800	-15.353	
467.900	-6.430	
468.000	-2.570	
468.100	-21.183	
468.200	-21.507	
468.300	-11.073	
468.400	-7.864	
468.500	-3.117	
468.600	-23.390	
468.700	-2.294	
468.800	4.775	
468.900	-7.159	
469.000	-13.836	
469.100	-18.596	
469.200	-8.029	
469.300	-5.755	
469.400	-13.169	
469.500	-8.269	
469.600	-7.235	
469.700	-11.071	
469.800	2.371	
469.900	-13.035	
470.000	-10.463	
470.100	5.298	
470.200	-16.856	
470.300	-11.100	
470.400	-10.051	
470.500	-6.960	
470.600	-2.865	
470.700	-8.379	
470.800	6.655	
470.900	-12.401	
471.000	-3.909	
471.100	-4.406	
471.200	-9.422	
471.300	-24.918	
471.400	-11.766	
471.500	-8.578	
471.600	-5.522	
471.700	-8.705	
471.800	-8.845	
471.900	-17.835	
472.000	2.144	
472.100	-9.336	
472.200	-14.216	
472.300	-15.209	
472.400	-10.026	
472.500	-4.465	
472.600	-6.813	
472.700	-2.244	
472.800	-20.852	
472.900	-11.477	
473.000	-18.234	
473.100	-14.282	
473.200	-2.320	
473.300	-6.273	
473.400	-11.434	
473.500	-0.041	
473.600	-16.716	
473.700	-18.671	
473.800	5.757	
473.900	0.162	
474.000	-23.752	
474.100	-18.612	
474.200	-8.443	
474.300	-14.803	
474.400	-2.516	
474.500	-0.529	
474.600	-10.656	
474.700	-21.168	
474.800	-1.950	
474.900	-17.628	
475.000	0.730	
475.100	-16.548	
475.200	-13.562	
475.300	-15.119	
475.400	-13.877	
475.500	-9.848	
475.600	-4.904	
475.700	-6.957	
475.800	-11.045	
475.900	-15.265	
476.000	6.502	
476.100	-4.682	
476.200	-22.237	
476.300	-6.505	
476.400	-7.268	
476.500	-13.244	
476.600	-5.017	
476.700	-21.623	
476.800	0.636	
476.900	-12.989	
477.000	-9.924	
477.100	-14.195	
477.200	-12.704	
477.300	3.255	
477.400	-5.062	
477.500	-5.429	
477.600	-5.625	
477.700	-4.131	
477.800	-14.096	
477.900	-2.644	
478.000	2.563	
478.100	4.503	
478.200	-3.070	
478.300	-15.456	
478.400	-13.934	
478.500	-0.324	
478.600	-14.080	
478.700	-23.279	
478.800	-6.662	
478.900	-12.698	
479.000	-9.894	
479.100	-3.883	
479.200	-8.702	
479.300	-20.638	
479.400	-2.183	
479.500	-7.141	
479.600	-20.005	
479.700	-9.255	
479.800	-1.745	
479.900	13.592	
480.000	-3.277	
480.100	-5.479	
480.200	-7.888	
480.300	10.571	
480.400	5.863	
480.500	22.261	
480.600	22.265	
480.700	18.906	
480.800	18.793	
480.900	26.838	
481.000	26.959	
481.100	18.431	
481.200	31.264	
481.300	37.179	
481.400	37.390	
481.500	23.842	
481.600	34.016	
481.700	30.995	
481.800	19.364	
481.900	30.150	
482.000	32.959	
482.100	28.420	
482.200	26.498	
482.300	29.430	
482.400	40.188	
482.500	33.640	
482.600	36.060	
482.700	16.553	
482.800	27.857	
482.900	22.613	
483.000	33.206	
483.100	24.675	
483.200	20.428	
483.300	31.000	
483.400	23.560	
483.500	35.301	
483.600	28.055	
483.700	20.678	
483.800	22.384	
483.900	29.979	
484.000	22.290	
484.100	16.802	
484.200	22.459	
484.300	28.893	
484.400	25.452	
484.500	16.911	
484.600	11.128	
484.700	34.156	
484.800	14.536	
484.900	28.748	
485.000	27.938	
485.100	13.051	
485.200	22.065	
485.300	17.405	
485.400	22.709	
485.500	14.847	
485.600	21.460	
485.700	5.878	
485.800	35.625	
485.900	24.426	
486.000	28.573	
486.100	16.467	
486.200	23.216	
486.300	18.413	
486.400	11.970	
486.500	14.608	
486.600	28.099	
486.700	11.826	
486.800	39.983	
486.900	16.534	
487.000	37.822	
487.100	26.999	
487.200	9.279	
487.300	10.441	
487.400	28.106	
487.500	19.976	
487.600	20.728	
487.700	27.387	
487.800	21.823	
487.900	24.779	
488.000	32.242	
488.100	18.849	
488.200	26.018	
488.300	36.686	
488.400	12.922	
488.500	25.638	
488.600	16.254	
488.700	26.063	
488.800	27.111	
488.900	29.749	
489.000	10.556	
489.100	41.796	
489.200	27.648	
489.300	36.127	
489.400	16.823	
489.500	40.807	
489.600	17.179	
489.700	33.745	
489.800	39.597	
489.900	28.778	
490.000	23.310	
490.100	21.958	
490.200	43.731	
490.300	47.932	
490.400	33.878	
490.500	25.322	
490.600	19.719	
490.700	29.950	
490.800	43.930	
490.900	27.974	
491.000	40.057	
491.100	22.353	
491.200	28.538	
491.300	35.254	
491.400	57.209	
491.500	21.639	
491.600	25.979	
491.700	35.937	
491.800	40.147	
491.900	36.258	
492.000	36.585	
492.100	32.593	
492.200	35.682	
492.300	32.253	
492.400	26.165	
492.500	41.313	
492.600	45.497	
492.700	39.956	
492.800	35.276	
492.900	33.799	
493.000	41.950	
493.100	39.316	
493.200	26.201	
493.300	39.112	
493.400	47.116	
493.500	33.571	
493.600	57.527	
493.700	17.803	
493.800	41.307	
493.900	52.852	
494.000	52.409	
494.100	26.864	
494.200	34.888	
494.300	46.193	
494.400	32.086	
494.500	55.662	
494.600	49.432	
494.700	44.715	
494.800	28.762	
494.900	39.570	
495.000	46.357	
495.100	49.812	
495.200	38.670	
495.300	39.821	
495.400	55.209	
495.500	51.423	
495.600	44.191	
495.700	36.809	
495.800	50.091	
495.900	54.365	
496.000	46.832	
496.100	47.819	
496.200	52.982	
496.300	37.432	
496.400	46.966	
496.500	40.885	
496.600	56.545	
496.700	49.482	
496.800	50.573	
496.900	47.121	
497.000	43.954	
497.100	57.809	
497.200	51.131	
497.300	56.608	
497.400	46.692	
497.500	44.854	
497.600	36.714	
497.700	42.819	
497.800	50.520	
497.900	32.492	
498.000	48.198	
498.100	46.386	
498.200	50.188	
498.300	38.360	
498.400	46.658	
498.500	53.125	
498.600	42.763	
498.700	52.166	
498.800	40.666	
498.900	60.211	
499.000	52.818	
499.100	47.388	
499.200	58.992	
499.300	42.932	
499.400	44.854	
499.500	48.604	
499.600	44.288	
499.700	36.361	
499.800	40.052	
499.900	50.198	
500.000	35.196	
500.100	61.867	
500.200	55.380	
500.300	47.982	
500.400	57.522	
500.500	49.403	
500.600	37.961	
500.700	52.830	
500.800	49.271	
500.900	48.355	
501.000	38.804	
501.100	60.944	
501.200	39.474	
501.300	43.984	
501.400	52.157	
501.500	39.887	
501.600	49.128	
501.700	52.922	
501.800	48.610	
501.900	51.672	
502.000	43.439	
502.100	35.207	
502.200	61.055	
502.300	41.520	
502.400	57.237	
502.500	36.801	
502.600	37.078	
502.700	49.715	
502.800	52.107	
502.900	44.128	
503.000	43.138	
503.100	47.478	
503.200	32.480	
503.300	55.372	
503.400	51.090	
503.500	45.017	
503.600	44.967	
503.700	48.660	
503.800	48.014	
503.900	43.846	
504.000	50.628	
504.100	46.492	
504.200	46.001	
504.300	45.551	
504.400	27.942	
504.500	47.108	
504.600	42.682	
504.700	38.183	
504.800	62.281	
504.900	39.307	
505.000	55.617	
505.100	38.156	
505.200	52.584	
505.300	43.763	
505.400	48.161	
505.500	35.913	
505.600	38.422	
505.700	57.680	
505.800	42.755	
505.900	40.546	
506.000	46.167	
506.100	48.918	
506.200	46.093	
506.300	39.606	
506.400	30.633	
506.500	38.560	
506.600	47.461	
506.700	47.186	
506.800	48.102	
506.900	42.532	
507.000	50.298	
507.100	49.648	
507.200	43.354	
507.300	43.663	
507.400	45.429	
507.500	56.266	
507.600	36.852	
507.700	48.420	
507.800	33.384	
507.900	43.435	
508.000	49.645	
508.100	57.761	
508.200	55.357	
508.300	52.666	
508.400	44.765	
508.500	45.614	
508.600	57.252	
508.700	39.657	
508.800	38.593	
508.900	50.596	
509.000	40.137	
509.100	45.107	
509.200	43.587	
509.300	54.187	
509.400	49.595	
509.500	45.947	
509.600	39.290	
509.700	36.369	
509.800	42.380	
509.900	64.376	
510.000	38.618	
510.100	41.534	
510.200	55.109	
510.300	43.052	
510.400	45.754	
510.500	43.802	
510.600	48.997	
510.700	51.503	
510.800	33.828	
510.900	31.891	
511.000	58.435	
511.100	43.031	
511.200	42.284	
511.300	53.079	
511.400	59.007	
511.500	44.304	
511.600	51.891	
511.700	33.304	
511.800	50.377	
511.900	28.798	
512.000	55.934	
512.100	47.497	
512.200	43.266	
512.300	40.321	
512.400	37.945	
512.500	41.972	
512.600	26.691	
512.700	53.189	
512.800	44.968	
512.900	44.825	
513.000	55.090	
513.100	38.606	
513.200	45.489	
513.300	54.632	
513.400	53.798	
513.500	32.741	
513.600	42.452	
513.700	44.523	
513.800	50.312	
513.900	35.660	
514.000	37.163	
514.100	52.140	
514.200	48.066	
514.300	39.563	
514.400	47.471	
514.500	58.991	
514.600	41.983	
514.700	43.967	
514.800	43.739	
514.900	39.273	
515.000	49.801	
515.100	41.068	
515.200	46.658	
515.300	40.534	
515.400	40.479	
515.500	45.218	
515.600	38.687	
515.700	18.291	
515.800	62.142	
515.900	40.668	
516.000	51.486	
516.100	36.133	
516.200	41.453	
516.300	43.751	
516.400	41.773	
516.500	22.319	
516.600	49.055	
516.700	43.157	
516.800	45.242	
516.900	51.776	
517.000	46.585	
517.100	45.452	
517.200	44.058	
517.300	45.685	
517.400	49.643	
517.500	22.905	
517.600	43.130	
517.700	37.803	
517.800	54.667	
517.900	45.789	
518.000	39.229	
518.100	38.874	
518.200	48.819	
518.300	42.963	
518.400	42.528	
518.500	55.096	
518.600	42.417	
518.700	37.922	
518.800	38.424	
518.900	43.559	
519.000	38.277	
519.100	48.910	
519.200	46.357	
519.300	37.264	
519.400	47.710	
519.500	56.748	
519.600	44.532	
519.700	41.344	
519.800	44.984	
519.900	49.168	
520.000	48.672	
520.100	28.916	
520.200	36.098	
520.300	36.367	
520.400	40.328	
520.500	46.089	
520.600	40.619	
520.700	41.758	
520.800	38.212	
520.900	39.703	
521.000	45.688	
521.100	38.204	
521.200	49.138	
521.300	39.049	
521.400	32.924	
521.500	53.364	
521.600	44.026	
521.700	37.933	
521.800	49.098	
521.900	41.599	
522.000	44.341	
522.100	38.041	
522.200	49.323	
522.300	42.506	
522.400	46.709	
522.500	39.158	
522.600	39.886	
522.700	49.450	
522.800	64.897	
522.900	41.502	
523.000	44.918	
523.100	39.505	
523.200	42.780	
523.300	42.777	
523.400	43.515	
523.500	35.662	
523.600	46.066	
523.700	42.496	
523.800	34.138	
523.900	39.284	
524.000	45.870	
524.100	51.028	
524.200	39.247	
524.300	37.694	
524.400	45.681	
524.500	63.278	
524.600	49.264	
524.700	53.724	
524.800	24.772	
524.900	39.536	
525.000	40.915	
525.100	27.036	
525.200	47.981	
525.300	37.939	
525.400	32.631	
525.500	48.589	
525.600	45.208	
525.700	42.143	
525.800	36.308	
525.900	48.234	
526.000	48.596	
526.100	38.784	
526.200	45.891	
526.300	47.806	
526.400	42.774	
526.500	33.792	
526.600	26.507	
526.700	46.692	
526.800	33.573	
526.900	35.947	
527.000	51.489	
527.100	51.624	
527.200	46.298	
527.300	42.715	
527.400	40.968	
527.500	35.391	
527.600	67.219	
527.700	49.023	
527.800	42.825	
527.900	23.348	
528.000	45.865	
528.100	53.073	
528.200	37.691	
528.300	54.812	
528.400	61.092	
528.500	38.257	
528.600	36.128	
528.700	37.363	
528.800	24.831	
528.900	43.900	
529.000	43.885	
529.100	46.454	
529.200	37.746	
529.300	47.960	
529.400	30.999	
529.500	40.275	
529.600	60.975	
529.700	39.564	
529.800	40.172	
529.900	44.757	
530.000	36.267	
530.100	45.001	
530.200	49.687	
530.300	46.250	
530.400	34.854	
530.500	46.033	
530.600	33.297	
530.700	46.024	
530.800	35.055	
530.900	41.869	
531.000	37.551	
531.100	48.481	
531.200	51.837	
531.300	46.470	
531.400	31.989	
531.500	46.463	
531.600	43.886	
531.700	39.922	
531.800	53.169	
531.900	44.489	
532.000	47.785	
532.100	33.305	
532.200	41.340	
532.300	37.674	
532.400	47.203	
532.500	35.315	
532.600	66.804	
532.700	26.420	
532.800	48.322	
532.900	38.873	
533.000	30.741	
533.100	59.490	
533.200	33.796	
533.300	32.757	
533.400	38.329	
533.500	52.495	
533.600	32.220	
533.700	40.840	
533.800	32.609	
533.900	43.870	
534.000	37.930	
534.100	51.213	
534.200	42.937	
534.300	48.218	
534.400	32.852	
534.500	40.380	
534.600	47.333	
534.700	46.008	
534.800	42.108	
534.900	43.955	
535.000	37.484	
535.100	42.093	
535.200	44.925	
535.300	28.633	
535.400	39.572	
535.500	41.962	
535.600	42.332	
535.700	39.699	
535.800	38.849	
535.900	35.197	
536.000	46.625	
536.100	23.120	
536.200	55.608	
536.300	35.494	
536.400	45.285	
536.500	33.314	
536.600	46.892	
536.700	49.287	
536.800	36.193	
536.900	42.978	
537.000	37.282	
537.100	55.472	
537.200	50.873	
537.300	42.146	
537.400	22.473	
537.500	43.780	
537.600	41.015	
537.700	28.689	
537.800	33.897	
537.900	41.884	
538.000	39.233	
538.100	40.281	
538.200	39.523	
538.300	43.118	
538.400	42.211	
538.500	38.075	
538.600	35.729	
538.700	31.939	
538.800	46.726	
538.900	51.642	
539.000	48.337	
539.100	45.066	
539.200	41.264	
539.300	31.867	
539.400	46.630	
539.500	51.002	
539.600	50.162	
539.700	43.366	
539.800	41.755	
539.900	52.217	
540.000	35.922	
540.100	42.413	
540.200	38.143	
540.300	22.783	
540.400	25.369	
540.500	33.630	
540.600	31.324	
540.700	31.980	
540.800	20.242	
540.900	21.567	
541.000	23.248	
541.100	3.201	
541.200	20.157	
541.300	9.792	
541.400	10.087	
541.500	-1.389	
541.600	-0.758	
541.700	-0.898	
541.800	-6.059	
541.900	-20.784	
542.000	7.942	
542.100	-8.662	
542.200	-12.394	
542.300	-20.611	
542.400	-28.057	
542.500	-1.698	
542.600	-19.204	
542.700	-16.411	
542.800	-33.525	
542.900	-9.853	
543.000	-19.657	
543.100	-17.514	
543.200	-12.004	
543.300	-35.666	
543.400	-17.437	
543.500	-10.866	
543.600	-21.871	
543.700	-19.190	
543.800	-3.428	
543.900	-36.397	
544.000	-19.811	
544.100	-15.940	
544.200	-25.841	
544.300	-29.350	
544.400	-16.008	
544.500	-43.135	
544.600	-26.721	
544.700	-31.155	
544.800	-11.239	
544.900	-19.583	
545.000	-23.013	
545.100	-22.393	
545.200	-11.541	
545.300	-23.025	
545.400	-20.482	
545.500	-26.259	
545.600	-24.824	
545.700	-18.033	
545.800	-25.140	
545.900	-32.912	
546.000	-19.705	
546.100	-31.174	
546.200	-23.649	
546.300	-19.611	
546.400	-25.273	
546.500	-9.160	
546.600	-31.202	
546.700	-27.213	
546.800	-4.882	
546.900	-33.365	
547.000	-13.820	
547.100	-32.605	
547.200	-16.804	
547.300	-21.769	
547.400	-14.126	
547.500	-19.516	
547.600	-18.077	
547.700	-8.071	
547.800	-28.328	
547.900	-27.506	
548.000	-40.935	
548.100	-11.574	
548.200	-11.204	
548.300	-27.903	
548.400	-20.742	
548.500	-20.248	
548.600	-15.856	
548.700	-25.178	
548.800	-12.219	
548.900	-18.231	
549.000	-26.532	
549.100	-15.565	
549.200	-25.562	
549.300	-25.961	
549.400	-13.458	
549.500	-16.449	
549.600	-30.989	
549.700	-24.322	
549.800	-21.017	
549.900	-15.354	
550.000	-7.582	
550.100	-10.153	
550.200	-27.908	
550.300	-19.310	
550.400	-8.361	
550.500	-22.264	
550.600	-14.293	
550.700	-18.716	
550.800	-20.160	
550.900	-44.096	
551.000	-12.687	
551.100	-13.055	
551.200	-7.112	
551.300	-24.322	
551.400	-15.415	
551.500	-33.218	
551.600	-28.024	
551.700	-10.783	
551.800	-19.468	
551.900	-26.416	
552.000	-17.561	
552.100	-17.167	
552.200	-13.611	
552.300	-11.541	
552.400	-26.461	
552.500	-2.568	
552.600	-24.832	
552.700	-19.722	
552.800	-12.837	
552.900	-18.444	
553.000	-27.444	
553.100	-13.046	
553.200	-24.073	
553.300	-13.035	
553.400	-11.271	
553.500	-14.795	
553.600	-21.155	
553.700	-22.115	
553.800	-12.249	
553.900	-20.835	
554.000	-20.147	
554.100	-19.035	
554.200	-24.503	
554.300	-12.123	
554.400	-13.510	
554.500	-33.250	
554.600	-9.205	
554.700	-19.004	
554.800	-21.611	
554.900	-20.688	
555.000	-15.471	
555.100	-25.213	
555.200	-16.187	
555.300	-11.602	
555.400	-21.592	
555.500	-20.744	
555.600	-16.929	
555.700	-12.664	
555.800	-36.736	
555.900	-16.049	
556.000	-23.457	
556.100	-17.387	
556.200	-22.981	
556.300	-19.973	
556.400	-11.166	
556.500	-27.569	
556.600	-21.568	
556.700	-29.958	
556.800	-4.898	
556.900	-7.850	
557.000	-28.633	
557.100	-28.648	
557.200	-27.785	
557.300	-6.301	
557.400	-20.397	
557.500	-27.015	
557.600	-17.947	
557.700	-13.044	
557.800	-24.155	
557.900	-17.703	
558.000	-23.842	
558.100	-10.394	
558.200	-1.118	
558.300	-18.681	
558.400	-28.618	
558.500	-9.126	
558.600	-14.960	
558.700	-18.732	
558.800	-29.856	
558.900	-21.844	
559.000	-26.313	
559.100	-27.979	
559.200	-24.892	
559.300	-29.607	
559.400	-13.499	
559.500	-17.901	
559.600	-24.142	
559.700	-22.980	
559.800	-5.564	
559.900	-12.610	
560.000	-22.233	
560.100	-12.939	
560.200	-14.350	
560.300	-25.910	
560.400	-8.974	
560.500	-17.100	
560.600	-17.134	
560.700	-13.095	
560.800	-16.697	
560.900	-22.832	
561.000	-15.639	
561.100	-18.854	
561.200	-15.212	
561.300	-10.771	
561.400	-17.488	
561.500	-31.057	
561.600	-18.215	
561.700	-10.830	
561.800	-34.032	
561.900	-9.852	
562.000	-16.599	
562.100	-11.851	
562.200	-20.148	
562.300	-24.269	
562.400	-11.076	
562.500	-27.504	
562.600	-26.351	
562.700	-16.303	
562.800	-18.948	
562.900	-8.227	
563.000	-14.144	
563.100	-16.826	
563.200	-21.338	
563.300	-31.709	
563.400	-14.688	
563.500	-15.610	
563.600	-15.736	
563.700	-20.976	
563.800	-12.522	
563.900	-8.913	
564.000	-8.464	
564.100	-15.243	
564.200	-16.931	
564.300	-7.780	
564.400	-15.309	
564.500	-31.044	
564.600	-5.686	
564.700	-5.072	
564.800	-18.890	
564.900	-10.428	
565.000	-21.373	
565.100	-17.922	
565.200	-6.973	
565.300	-21.631	
565.400	-13.507	
565.500	-16.912	
565.600	-22.167	
565.700	-13.927	
565.800	-28.454	
565.900	-12.684	
566.000	-24.719	
566.100	-19.409	
566.200	-17.762	
566.300	-7.141	
566.400	-30.880	
566.500	-12.567	
566.600	-22.801	
566.700	-28.522	
566.800	-13.776	
566.900	-32.055	
567.000	-18.589	
567.100	-14.370	
567.200	-17.065	
567.300	-18.642	
567.400	-16.468	
567.500	-16.937	
567.600	-10.976	
567.700	-32.375	
567.800	-13.103	
567.900	-12.754	
568.000	-29.118	
568.100	-15.970	
568.200	-8.445	
568.300	-27.699	
568.400	-17.186	
568.500	-12.817	
568.600	-19.727	
568.700	-11.820	
568.800	-20.927	
568.900	-28.804	
569.000	-6.761	
569.100	-18.632	
569.200	-26.938	
569.300	-14.331	
569.400	-20.136	
569.500	-6.884	
569.600	-19.483	
569.700	-30.976	
569.800	-6.693	
569.900	-15.736	
570.000	-11.707	
570.100	-16.213	
570.200	-25.210	
570.300	-14.611	
570.400	-17.868	
570.500	-30.469	
570.600	-10.777	
570.700	-23.023	
570.800	-12.245	
570.900	-19.762	
571.000	-3.723	
571.100	-7.428	
571.200	-35.761	
571.300	-8.939	
571.400	-18.559	
571.500	-30.257	
571.600	-22.595	
571.700	-10.579	
571.800	-15.348	
571.900	5.312	
572.000	-18.648	
572.100	-6.926	
572.200	-31.133	
572.300	-20.744	
572.400	-28.252	
572.500	-3.335	
572.600	-7.800	
572.700	-23.943	
572.800	-6.291	
572.900	-10.260	
573.000	-21.620	
573.100	-12.205	
573.200	-22.011	
573.300	-14.819	
573.400	-16.927	
573.500	-14.282	
573.600	-16.668	
573.700	-11.044	
573.800	-22.452	
573.900	-11.692	
574.000	-12.530	
574.100	-15.998	
574.200	-11.593	
574.300	-45.151	
574.400	-11.977	
574.500	-11.014	
574.600	-24.571	
574.700	-12.319	
574.800	-14.003	
574.900	-8.547	
575.000	-26.892	
575.100	-15.693	
575.200	-22.483	
575.300	-34.043	
575.400	0.405	
575.500	-18.648	
575.600	-19.315	
575.700	-17.028	
575.800	-28.593	
575.900	-8.937	
576.000	-17.172	
576.100	-12.619	
576.200	-12.625	
576.300	-17.782	
576.400	-15.731	
576.500	-15.306	
576.600	-14.179	
576.700	-22.538	
576.800	-13.153	
576.900	-12.710	
577.000	-17.854	
577.100	-16.689	
577.200	-13.500	
577.300	-18.332	
577.400	-18.639	
577.500	-19.463	
577.600	-27.286	
577.700	-11.990	
577.800	-20.064	
577.900	-19.379	
578.000	4.590	
578.100	-13.460	
578.200	-28.915	
578.300	-23.384	
578.400	-31.503	
578.500	-2.833	
578.600	-9.899	
578.700	-15.630	
578.800	-21.346	
578.900	-17.434	
579.000	-23.556	
579.100	-7.250	
579.200	-11.503	
579.300	-18.057	
579.400	-19.736	
579.500	-11.633	
579.600	-17.800	
579.700	-19.071	
579.800	-17.604	
579.900	-18.600	
580.000	-13.453	
580.100	-8.854	
580.200	-12.281	
580.300	-22.061	
580.400	-11.035	
580.500	-21.013	
580.600	-27.761	
580.700	-19.349	
580.800	-18.155	
580.900	-3.582	
581.000	5.831	
581.100	-28.645	
581.200	-14.339	
581.300	-21.582	
581.400	-20.199	
581.500	-18.857	
581.600	-7.214	
581.700	-30.647	
581.800	-6.467	
581.900	-15.071	
582.000	-9.870	
582.100	-13.720	
582.200	-21.695	
582.300	-8.078	
582.400	-10.943	
582.500	-19.348	
582.600	-16.811	
582.700	-12.804	
582.800	-22.233	
582.900	-18.479	
583.000	-13.776	
583.100	-12.182	
583.200	-11.874	
583.300	-21.082	
583.400	-1.540	
583.500	-21.196	
583.600	-18.123	
583.700	-29.127	
583.800	-12.657	
583.900	-6.756	
584.000	-12.320	
584.100	-23.688	
584.200	-9.133	
584.300	-15.243	
584.400	-1.278	
584.500	-15.637	
584.600	-28.031	
584.700	-19.464	
584.800	-13.380	
584.900	-11.969	
585.000	-15.948	
585.100	-16.977	
585.200	-12.279	
585.300	-18.885	
585.400	-15.047	
585.500	-18.700	
585.600	-31.703	
585.700	-4.217	
585.800	-14.798	
585.900	-10.466	
586.000	-16.844	
586.100	-21.426	
586.200	-2.789	
586.300	-21.660	
586.400	-14.524	
586.500	-20.916	
586.600	-16.133	
586.700	-17.891	
586.800	-23.302	
586.900	-31.152	
587.000	-28.371	
587.100	-14.708	
587.200	-13.145	
587.300	-15.683	
587.400	-4.029	
587.500	-19.265	
587.600	-18.457	
587.700	-10.491	
587.800	-5.870	
587.900	-4.946	
588.000	-5.409	
588.100	-17.200	
588.200	-18.227	
588.300	-18.671	
588.400	-16.459	
588.500	-21.254	
588.600	-7.247	
588.700	0.362	
588.800	-21.741	
588.900	-22.373	
589.000	-10.580	
589.100	-9.072	
589.200	-18.331	
589.300	-6.212	
589.400	-26.985	
589.500	-21.834	
589.600	-16.889	
589.700	-12.100	
589.800	-17.275	
589.900	-5.306	
590.000	-26.933	
590.100	-33.010	
590.200	-7.220	
590.300	-11.887	
590.400	-24.748	
590.500	0.081	
590.600	-31.326	
590.700	-16.564	
590.800	-12.761	
590.900	-26.086	
591.000	6.786	
591.100	-9.538	
591.200	-22.406	
591.300	-22.343	
591.400	-13.557	
591.500	-15.791	
591.600	-15.341	
591.700	-15.947	
591.800	-10.200	
591.900	-10.215	
592.000	-11.280	
592.100	-13.510	
592.200	-12.435	
592.300	-4.646	
592.400	-18.745	
592.500	-9.558	
592.600	-15.172	
592.700	-23.088	
592.800	-5.535	
592.900	-14.303	
593.000	-14.768	
593.100	-15.960	
593.200	-18.038	
593.300	-7.889	
593.400	-15.846	
593.500	-27.516	
593.600	-16.391	
593.700	-27.580	
593.800	7.995	
593.900	-5.316	
594.000	-4.869	
594.100	-3.342	
594.200	-11.175	
594.300	-17.292	
594.400	-16.957	
594.500	-11.656	
594.600	-11.698	
594.700	-11.003	
594.800	-21.684	
594.900	-17.548	
595.000	-14.400	
595.100	-19.036	
595.200	-8.687	
595.300	-15.390	
595.400	-11.104	
595.500	-15.015	
595.600	-11.320	
595.700	-17.260	
595.800	-13.878	
595.900	4.030	
596.000	-10.927	
596.100	-6.471	
596.200	-16.495	
596.300	-13.853	
596.400	-9.040	
596.500	-11.362	
596.600	-12.821	
596.700	-10.710	
596.800	-23.951	
596.900	-20.628	
597.000	-19.369	
597.100	-3.906	
597.200	-8.722	
597.300	-14.696	
597.400	-1.057	
597.500	-26.422	
597.600	-3.914	
597.700	-16.916	
597.800	-21.644	
597.900	-25.650	
598.000	-2.441	
598.100	-13.328	
598.200	-27.125	
598.300	-4.364	
598.400	-11.143	
598.500	-13.923	
598.600	-8.463	
598.700	-26.692	
598.800	-10.390	
598.900	-2.430	
599.000	-10.420	
599.100	-4.184	
599.200	-8.018	
599.300	-17.503	
599.400	-18.458	
599.500	-12.782	
599.600	-22.003	
599.700	-6.362	
599.800	-1.770	
599.900	-29.298	
600.000	-26.763	
600.100	-7.313	
600.200	-19.243	
600.300	-14.907	
600.400	-0.265	
600.500	-21.529	
600.600	-16.171	
600.700	-11.278	
600.800	-11.978	
600.900	-13.761	
601.000	-8.447	
601.100	-29.191	
601.200	-15.746	
601.300	-9.957	
601.400	-16.898	
601.500	-16.784	
601.600	-7.786	
601.700	-15.912	
601.800	1.116	
601.900	-13.528	
602.000	-13.361	
602.100	-10.987	
602.200	-10.803	
602.300	-10.694	
602.400	-17.184	
602.500	-7.433	
602.600	-11.348	
602.700	-14.797	
602.800	-13.082	
602.900	-16.571	
603.000	-11.034	
603.100	-4.200	
603.200	-17.638	
603.300	-11.783	
603.400	-11.552	
603.500	-14.231	
603.600	-11.274	
603.700	-4.659	
603.800	-8.948	
603.900	-11.195	
604.000	-23.453	
604.100	-25.848	
604.200	-1.017	
604.300	-8.723	
604.400	-30.965	
604.500	-7.817	
604.600	-7.547	
604.700	-14.043	
604.800	-14.829	
604.900	-26.789	
605.000	-3.302	
605.100	-17.483	
605.200	-16.392	
605.300	-17.952	
605.400	9.276	
605.500	-12.870	
605.600	-13.148	
605.700	-14.698	
605.800	-6.882	
605.900	-14.159	
606.000	-8.564	
606.100	-9.525	
606.200	-4.663	
606.300	-14.655	
606.400	-23.162	
606.500	-18.005	
606.600	-16.561	
606.700	1.103	
606.800	-15.719	
606.900	-18.600	
607.000	-5.607	
607.100	-10.997	
607.200	-16.024	
607.300	-22.046	
607.400	-15.125	
607.500	-7.630	
607.600	-7.796	
607.700	-9.996	
607.800	-16.402	
607.900	-5.812	
608.000	-13.685	
608.100	-17.642	
608.200	-7.558	
608.300	-5.857	
608.400	-4.202	
608.500	-22.735	
608.600	-5.295	
608.700	-10.464	
608.800	-8.053	
608.900	-18.034	
609.000	-18.196	
609.100	-8.002	
609.200	-23.357	
609.300	3.181	
609.400	-25.384	
609.500	-10.252	
609.600	8.557	
609.700	-9.530	
609.800	10.801	
609.900	-3.787	
610.000	-22.456	
610.100	-9.158	
610.200	-6.638	
610.300	-7.813	
610.400	-16.828	
610.500	1.776	
610.600	-12.596	
610.700	-14.549	
610.800	-13.984	
610.900	-4.016	
611.000	-21.423	
611.100	-8.651	
611.200	-4.548	
611.300	-5.341	
611.400	-9.554	
611.500	-15.250	
611.600	-16.097	
611.700	-12.564	
611.800	0.801	
611.900	-14.785	
612.000	-8.250	
612.100	-13.551	
612.200	-8.534	
612.300	-18.565	
612.400	-16.494	
612.500	-16.353	
612.600	-16.900	
612.700	-15.043	
612.800	-20.769	
612.900	-6.943	
613.000	4.156	
613.100	-8.196	
613.200	-8.436	
613.300	-2.520	
613.400	-11.821	
613.500	-11.842	
613.600	-10.079	
613.700	-17.277	
613.800	-2.018	
613.900	-8.793	
614.000	-9.394	
614.100	-17.218	
614.200	-6.898	
614.300	-22.131	
614.400	-19.113	
614.500	1.623	
614.600	-5.860	
614.700	-8.963	
614.800	-24.510	
614.900	-2.671	
615.000	-7.733	
615.100	-17.651	
615.200	-29.051	
615.300	-8.718	
615.400	-14.022	
615.500	-5.497	
615.600	-17.801	
615.700	-11.037	
615.800	-16.298	
615.900	-11.283	
616.000	-1.487	
616.100	-25.221	
616.200	-9.712	
616.300	-4.641	
616.400	-2.302	
616.500	-19.277	
616.600	-7.271	
616.700	-20.327	
616.800	-3.740	
616.900	3.252	
617.000	-17.726	
617.100	-4.597	
617.200	-12.373	
617.300	-7.218	
617.400	-12.650	
617.500	-12.708	
617.600	-11.561	
617.700	-13.403	
617.800	6.392	
617.900	-15.534	
618.000	-14.256	
618.100	-14.841	
618.200	-9.803	
618.300	2.586	
618.400	-8.211	
618.500	-10.826	
618.600	-9.433	
618.700	-8.164	
618.800	-19.639	
618.900	-14.841	
619.000	1.966	
619.100	-12.607	
619.200	-3.409	
619.300	-10.162	
619.400	-17.773	
619.500	-4.228	
619.600	-1.479	
619.700	-0.406	
619.800	-11.416	
619.900	-5.622	
620.000	-12.275	
620.100	-16.224	
620.200	-20.949	
620.300	2.614	
620.400	-8.069	
620.500	-9.784	
620.600	-1.352	
620.700	-8.559	
620.800	-18.748	
620.900	-7.802	
621.000	-17.032	
621.100	-8.177	
621.200	-30.094	
621.300	-6.021	
621.400	-13.395	
621.500	-15.857	
621.600	-16.613	
621.700	-6.856	
621.800	-4.151	
621.900	-9.074	
622.000	-22.000	
622.100	-12.465	
622.200	0.835	
622.300	-5.281	
622.400	-8.456	
622.500	-13.386	
622.600	0.961	
622.700	-15.785	
622.800	-8.193	
622.900	-3.060	
623.000	-10.351	
623.100	-24.154	
623.200	1.843	
623.300	-11.374	
623.400	-7.840	
623.500	-8.768	
623.600	-3.472	
623.700	-13.026	
623.800	-16.295	
623.900	-2.985	
624.000	-2.620	
624.100	-3.830	
624.200	-10.193	
624.300	-3.810	
624.400	-17.559	
624.500	-9.724	
624.600	-1.356	
624.700	-16.403	
624.800	-21.358	
624.900	-6.001	
625.000	-17.102	
625.100	-12.033	
625.200	-8.839	
625.300	-5.278	
625.400	-19.147	
625.500	-15.324	
625.600	-11.923	
625.700	-20.227	
625.800	3.889	
625.900	0.985	
626.000	-12.508	
626.100	-8.545	
626.200	-7.072	
626.300	-19.884	
626.400	-16.631	
626.500	-9.381	
626.600	5.425	
626.700	-12.436	
626.800	-22.252	
626.900	-11.484	
627.000	-6.923	
627.100	-14.051	
627.200	-16.367	
627.300	-0.022	
627.400	9.526	
627.500	-7.666	
627.600	-29.338	
627.700	0.631	
627.800	-20.917	
627.900	-5.314	
628.000	6.958	
628.100	-7.646	
628.200	-10.551	
628.300	-3.825	
628.400	-11.573	
628.500	-13.369	
628.600	-9.076	
628.700	-13.778	
628.800	-16.175	
628.900	-1.995	
629.000	0.304	
629.100	-7.248	
629.200	-14.977	
629.300	-4.386	
629.400	-7.070	
629.500	-16.849	
629.600	-9.223	
629.700	3.815	
629.800	-7.052	
629.900	-18.577	
630.000	7.450	
630.100	-7.956	
630.200	1.843	
630.300	10.367	
630.400	1.387	
630.500	10.613	
630.600	12.859	
630.700	22.172	
630.800	29.327	
630.900	21.631	
631.000	33.441	
631.100	29.542	
631.200	25.025	
631.300	36.130	
631.400	29.350	
631.500	30.144	
631.600	28.008	
631.700	25.438	
631.800	27.359	
631.900	28.799	
632.000	25.020	
632.100	26.866	
632.200	27.863	
632.300	21.414	
632.400	46.262	
632.500	20.009	
632.600	23.184	
632.700	33.977	
632.800	34.882	
632.900	34.047	
633.000	21.182	
633.100	27.753	
633.200	17.099	
633.300	34.259	
633.400	33.200	
633.500	16.614	
633.600	25.688	
633.700	16.179	
633.800	26.773	
633.900	19.592	
634.000	19.333	
634.100	16.323	
634.200	30.489	
634.300	10.977	
634.400	19.209	
634.500	38.948	
634.600	29.278	
634.700	21.207	
634.800	21.345	
634.900	18.450	
635.000	17.516	
635.100	11.500	
635.200	44.604	
635.300	20.693	
635.400	23.991	
635.500	24.785	
635.600	16.395	
635.700	20.616	
635.800	28.479	
635.900	22.268	
636.000	17.832	
636.100	28.940	
636.200	15.727	
636.300	18.601	
636.400	35.849	
636.500	29.930	
636.600	10.719	
636.700	22.097	
636.800	21.428	
636.900	10.220	
637.000	19.625	
637.100	25.528	
637.200	28.531	
637.300	43.985	
637.400	23.498	
637.500	20.215	
637.600	22.123	
637.700	43.738	
637.800	20.939	
637.900	24.554	
638.000	27.698	
638.100	31.996	
638.200	21.129	
638.300	28.404	
638.400	37.037	
638.500	11.591	
638.600	32.535	
638.700	26.993	
638.800	20.790	
638.900	28.188	
639.000	27.538	
639.100	22.710	
639.200	29.819	
639.300	19.872	
639.400	25.728	
639.500	36.876	
639.600	30.817	
639.700	37.040	
639.800	35.581	
639.900	28.196	
640.000	28.312	
640.100	32.141	
640.200	19.471	
640.300	30.713	
640.400	26.802	
640.500	52.039	
640.600	32.867	
640.700	48.317	
640.800	44.733	
640.900	28.734	
641.000	37.739	
641.100	33.815	
641.200	48.207	
641.300	32.380	
641.400	32.446	
641.500	32.898	
641.600	27.811	
641.700	23.597	
641.800	48.789	
641.900	33.948	
642.000	33.724	
642.100	35.359	
642.200	51.279	
642.300	26.813	
642.400	47.958	
642.500	41.499	
642.600	31.593	
642.700	25.274	
642.800	29.543	
642.900	46.450	
643.000	54.666	
643.100	29.690	
643.200	48.317	
643.300	32.540	
643.400	55.390	
643.500	44.532	
643.600	43.586	
643.700	35.533	
643.800	48.681	
643.900	46.656	
644.000	38.378	
644.100	40.380	
644.200	43.329	
644.300	41.078	
644.400	41.496	
644.500	44.389	
644.600	45.730	
644.700	47.643	
644.800	45.623	
644.900	42.184	
645.000	44.483	
645.100	51.941	
645.200	49.310	
645.300	43.952	
645.400	51.139	
645.500	47.302	
645.600	42.463	
645.700	35.200	
645.800	38.937	
645.900	39.102	
646.000	64.613	
646.100	42.447	
646.200	36.948	
646.300	40.917	
646.400	47.999	
646.500	36.869	
646.600	59.657	
646.700	53.530	
646.800	43.470	
646.900	56.633	
647.000	63.077	
647.100	41.503	
647.200	56.862	
647.300	34.731	
647.400	47.844	
647.500	48.793	
647.600	50.380	
647.700	41.718	
647.800	44.002	
647.900	43.550	
648.000	44.704	
648.100	54.942	
648.200	39.676	
648.300	55.221	
648.400	54.357	
648.500	30.511	
648.600	44.883	
648.700	41.217	
648.800	55.108	
648.900	39.561	
649.000	43.422	
649.100	44.194	
649.200	46.194	
649.300	62.848	
649.400	42.925	
649.500	51.965	
649.600	48.504	
649.700	50.275	
649.800	50.818	
649.900	46.887	
650.000	44.945	
650.100	44.455	
650.200	44.346	
650.300	66.968	
650.400	45.200	
650.500	43.678	
650.600	55.496	
650.700	36.823	
650.800	54.630	
650.900	41.332	
651.000	49.855	
651.100	39.588	
651.200	56.209	
651.300	51.358	
651.400	54.319	
651.500	44.544	
651.600	44.199	
651.700	38.578	
651.800	41.322	
651.900	41.578	
652.000	45.944	
652.100	63.413	
652.200	47.928	
652.300	36.856	
652.400	35.969	
652.500	61.947	
652.600	47.966	
652.700	51.905	
652.800	52.769	
652.900	43.174	
653.000	55.191	
653.100	56.508	
653.200	40.973	
653.300	37.011	
653.400	56.455	
653.500	44.803	
653.600	52.485	
653.700	43.225	
653.800	63.742	
653.900	49.334	
654.000	40.132	
654.100	55.168	
654.200	41.172	
654.300	53.264	
654.400	52.800	
654.500	45.067	
654.600	45.996	
654.700	45.106	
654.800	50.711	
654.900	31.393	
655.000	52.412	
655.100	46.890	
655.200	49.079	
655.300	39.619	
655.400	40.801	
655.500	35.361	
655.600	49.540	
655.700	56.365	
655.800	48.943	
655.900	38.500	
656.000	44.391	
656.100	46.037	
656.200	58.588	
656.300	39.707	
656.400	50.041	
656.500	47.589	
656.600	41.324	
656.700	53.113	
656.800	43.382	
656.900	48.877	
657.000	40.466	
657.100	49.534	
657.200	36.337	
657.300	55.247	
657.400	43.387	
657.500	39.900	
657.600	40.372	
657.700	44.137	
657.800	47.613	
657.900	36.759	
658.000	47.629	
658.100	51.219	
658.200	50.996	
658.300	48.109	
658.400	35.360	
658.500	38.717	
658.600	52.661	
658.700	47.615	
658.800	41.096	
658.900	50.936	
659.000	46.324	
659.100	41.911	
659.200	44.739	
659.300	42.214	
659.400	50.184	
659.500	28.409	
659.600	41.455	
659.700	52.343	
659.800	58.192	
659.900	39.961	
660.000	46.672	
660.100	49.177	
660.200	37.881	
660.300	48.013	
660.400	35.137	
660.500	48.651	
660.600	53.462	
660.700	52.300	
660.800	44.163	
660.900	43.661	
661.000	45.062	
661.100	50.294	
661.200	46.213	
661.300	48.794	
661.400	50.704	
661.500	43.113	
661.600	48.174	
661.700	45.481	
661.800	46.481	
661.900	44.667	
662.000	47.933	
662.100	50.991	
662.200	35.672	
662.300	40.004	
662.400	52.455	
662.500	52.318	
662.600	53.600	
662.700	28.976	
662.800	45.793	
662.900	46.192	
663.000	51.863	
663.100	46.528	
663.200	39.495	
663.300	42.035	
663.400	46.924	
663.500	42.443	
663.600	30.348	
663.700	52.852	
663.800	43.320	
663.900	45.455	
664.000	37.385	
664.100	51.276	
664.200	46.641	
664.300	46.595	
664.400	49.981	
664.500	43.743	
664.600	55.771	
664.700	38.259	
664.800	43.252	
664.900	43.870	
665.000	43.498	
665.100	37.338	
665.200	35.954	
665.300	54.790	
665.400	52.586	
665.500	42.460	
665.600	54.250	
665.700	27.004	
665.800	30.932	
665.900	38.731	
666.000	55.369	
666.100	50.105	
666.200	47.687	
666.300	41.380	
666.400	33.961	
666.500	45.826	
666.600	38.950	
666.700	38.405	
666.800	46.024	
666.900	46.122	
667.000	48.488	
667.100	41.012	
667.200	38.206	
667.300	38.559	
667.400	35.391	
667.500	47.068	
667.600	44.807	
667.700	38.383	
667.800	41.849	
667.900	37.524	
668.000	52.548	
668.100	42.100	
668.200	40.932	
668.300	48.862	
668.400	48.431	
668.500	31.795	
668.600	57.113	
668.700	36.786	
668.800	47.961	
668.900	39.558	
669.000	32.321	
669.100	55.140	
669.200	31.535	
669.300	48.295	
669.400	39.533	
669.500	45.341	
669.600	56.360	
669.700	32.487	
669.800	55.172	
669.900	41.102	
670.000	50.270	
670.100	46.776	
670.200	36.408	
670.300	34.205	
670.400	34.002	
670.500	40.766	
670.600	43.935	
670.700	42.231	
670.800	36.106	
670.900	33.847	
671.000	36.570	
671.100	54.519	
671.200	52.704	
671.300	47.834	
671.400	49.429	
671.500	39.340	
671.600	42.939	
671.700	39.900	
671.800	41.805	
671.900	42.351	
672.000	37.335	
672.100	44.456	
672.200	40.477	
672.300	37.242	
672.400	41.770	
672.500	38.829	
672.600	40.243	
672.700	41.710	
672.800	37.939	
672.900	46.402	
673.000	43.908	
673.100	34.211	
673.200	52.003	
673.300	45.651	
673.400	46.660	
673.500	28.445	
673.600	41.585	
673.700	47.752	
673.800	53.553	
673.900	50.698	
674.000	26.558	
674.100	30.620	
674.200	50.925	
674.300	45.894	
674.400	24.665	
674.500	46.141	
674.600	56.916	
674.700	33.414	
674.800	50.677	
674.900	46.462	
675.000	44.952	
675.100	49.100	
675.200	36.929	
675.300	49.073	
675.400	40.571	
675.500	46.378	
675.600	42.330	
675.700	51.237	
675.800	61.377	
675.900	34.440	
676.000	44.118	
676.100	37.729	
676.200	22.259	
676.300	50.794	
676.400	54.922	
676.500	42.691	
676.600	38.614	
676.700	44.297	
676.800	36.137	
676.900	33.480	
677.000	42.617	
677.100	37.592	
677.200	39.491	
677.300	44.461	
677.400	42.815	
677.500	38.257	
677.600	43.566	
677.700	42.883	
677.800	41.606	
677.900	56.279	
678.000	55.539	
678.100	30.763	
678.200	32.891	
678.300	42.057	
678.400	43.572	
678.500	52.286	
678.600	41.018	
678.700	52.403	
678.800	49.312	
678.900	47.020	
679.000	31.676	
679.100	35.178	
679.200	51.914	
679.300	34.758	
679.400	52.093	
679.500	41.392	
679.600	37.164	
679.700	40.402	
679.800	42.502	
679.900	49.882	
680.000	36.278	
680.100	44.644	
680.200	52.519	
680.300	41.828	
680.400	46.922	
680.500	45.723	
680.600	42.690	
680.700	31.141	
680.800	38.552	
680.900	42.877	
681.000	46.821	
681.100	46.333	
681.200	54.824	
681.300	34.658	
681.400	39.251	
681.500	36.497	
681.600	44.704	
681.700	47.555	
681.800	30.974	
681.900	42.254	
682.000	50.057	
682.100	37.636	
682.200	49.623	
682.300	50.071	
682.400	37.050	
682.500	32.078	
682.600	57.836	
682.700	48.578	
682.800	33.219	
682.900	33.150	
683.000	53.607	
683.100	36.978	
683.200	34.538	
683.300	33.437	
683.400	42.671	
683.500	34.015	
683.600	36.933	
683.700	49.461	
683.800	50.761	
683.900	40.075	
684.000	35.139	
684.100	44.834	
684.200	47.830	
684.300	48.385	
684.400	42.640	
684.500	44.819	
684.600	47.139	
684.700	36.407	
684.800	39.062	
684.900	51.729	
685.000	30.216	
685.100	46.738	
685.200	41.213	
685.300	47.500	
685.400	24.381	
685.500	56.142	
685.600	43.087	
685.700	44.767	
685.800	39.146	
685.900	33.199	
686.000	43.603	
686.100	37.649	
686.200	38.103	
686.300	44.546	
686.400	39.500	
686.500	37.718	
686.600	34.027	
686.700	45.895	
686.800	44.557	
686.900	44.813	
687.000	36.202	
687.100	33.260	
687.200	31.766	
687.300	38.603	
687.400	45.527	
687.500	46.021	
687.600	39.238	
687.700	45.983	
687.800	39.884	
687.900	43.640	
688.000	47.873	
688.100	46.477	
688.200	63.843	
688.300	24.968	
688.400	28.630	
688.500	40.366	
688.600	46.636	
688.700	24.618	
688.800	49.269	
688.900	39.184	
689.000	36.914	
689.100	34.964	
689.200	35.582	
689.300	50.590	
689.400	50.543	
689.500	34.282	
689.600	46.938	
689.700	40.134	
689.800	46.586	
689.900	44.975	
690.000	43.333	
690.100	32.701	
690.200	35.641	
690.300	30.902	
690.400	29.133	
690.500	28.835	
690.600	19.805	
690.700	21.390	
690.800	19.483	
690.900	13.980	
691.000	18.409	
691.100	-0.162	
691.200	23.554	
691.300	-7.107	
691.400	3.972	
691.500	-5.673	
691.600	3.318	
691.700	-8.565	
691.800	4.357	
691.900	-15.713	
692.000	-8.500	
692.100	14.192	
692.200	-12.054	
692.300	-19.620	
692.400	-8.214	
692.500	-11.734	
692.600	-9.008	
692.700	-16.985	
692.800	-18.128	
692.900	-15.566	
693.000	-37.912	
693.100	-21.713	
693.200	-19.397	
693.300	-14.542	
693.400	-25.206	
693.500	-9.612	
693.600	-27.927	
693.700	-16.760	
693.800	-22.928	
693.900	-25.951	
694.000	-25.555	
694.100	-13.457	
694.200	-23.155	
694.300	-25.596	
694.400	-20.474	
694.500	-17.352	
694.600	-15.922	
694.700	-38.609	
694.800	-34.182	
694.900	-26.467	
695.000	-12.398	
695.100	-15.145	
695.200	-31.950	
695.300	-21.341	
695.400	-35.475	
695.500	-16.466	
695.600	-19.086	
695.700	-31.016	
695.800	-25.624	
695.900	-20.069	
696.000	-21.226	
696.100	-9.036	
696.200	-31.333	
696.300	-28.281	
696.400	-18.302	
696.500	-30.642	
696.600	-13.792	
696.700	-29.196	
696.800	-11.760	
696.900	-21.999	
697.000	-42.101	
697.100	-25.295	
697.200	-19.412	
697.300	-24.942	
697.400	-13.623	
697.500	-24.391	
697.600	-14.144	
697.700	-19.728	
697.800	-19.935	
697.900	-25.457	
698.000	-16.073	
698.100	-22.563	
698.200	-25.185	
698.300	-22.928	
698.400	-23.429	
698.500	-16.414	
698.600	-18.054	
698.700	-19.984	
698.800	-33.460	
698.900	-11.538	
699.000	-20.291	
699.100	-13.446	
699.200	-24.781	
699.300	-29.496	
699.400	-14.944	
699.500	-22.470	
699.600	-23.447	
699.700	-19.419	
699.800	-16.857	
699.900	-18.981	
700.000	-7.506	
700.100	-30.620	
700.200	-28.303	
700.300	-27.435	
700.400	-44.839	
700.500	-24.511	
700.600	-8.705	
700.700	-19.213	
700.800	-19.679	
700.900	-37.066	
701.000	-16.272	
701.100	-4.912	
701.200	-24.360	
701.300	-28.591	
701.400	-22.547	
701.500	-16.255	
701.600	-24.746	
701.700	-32.971	
701.800	-27.924	
701.900	-14.685	
702.000	-4.947	
702.100	-13.624	
702.200	-19.020	
702.300	-24.103	
702.400	-20.274	
702.500	-10.819	
702.600	-29.897	
702.700	-27.537	
702.800	-8.973	
702.900	-28.683	
703.000	-2.042	
703.100	-26.431	
703.200	-21.928	
703.300	-8.330	
703.400	-23.497	
703.500	-21.652	
703.600	-14.275	
703.700	-18.007	
703.800	-16.499	
703.900	-27.677	
704.000	-17.811	
704.100	-10.177	
704.200	-21.660	
704.300	-4.774	
704.400	-30.162	
704.500	-23.609	
704.600	-20.147	
704.700	-25.172	
704.800	-31.353	
704.900	-12.388	
705.000	-6.663	
705.100	-29.304	
705.200	-8.044	
705.300	-27.718	
705.400	-28.715	
705.500	-8.342	
705.600	-15.631	
705.700	-23.081	
705.800	-34.471	
705.900	-13.531	
706.000	-19.987	
706.100	-27.035	
706.200	-25.244	
706.300	-13.914	
706.400	-2.970	
706.500	-15.654	
706.600	-20.143	
706.700	-20.719	
706.800	-18.705	
706.900	-24.711	
707.000	-24.743	
707.100	-16.225	
707.200	-17.944	
707.300	-18.487	
707.400	-24.001	
707.500	-30.064	
707.600	-20.018	
707.700	-15.016	
707.800	-34.123	
707.900	-26.496	
708.000	-19.913	
708.100	-28.843	
708.200	-15.056	
708.300	-25.466	
708.400	-10.536	
708.500	-19.332	
708.600	-10.477	
708.700	-13.686	
708.800	-18.178	
708.900	-31.376	
709.000	-13.809	
709.100	-12.304	
709.200	-31.746	
709.300	-16.349	
709.400	-24.490	
709.500	-23.456	
709.600	-32.739	
709.700	-9.751	
709.800	-13.412	
709.900	-28.332	
710.000	-27.676	
710.100	-15.310	
710.200	-21.424	
710.300	-9.198	
710.400	-9.179	
710.500	-22.110	
710.600	-15.620	
710.700	-22.494	
710.800	-14.096	
710.900	-12.044	
711.000	-11.241	
711.100	-17.489	
711.200	-17.036	
711.300	-25.816	
711.400	-15.833	
711.500	-28.105	
711.600	-15.431	
711.700	-6.778	
711.800	-25.947	
711.900	-17.118	
712.000	-13.976	
712.100	-2.163	
712.200	-20.175	
712.300	-20.705	
712.400	-15.700	
712.500	-21.836	
712.600	-22.901	
712.700	-35.351	
712.800	-6.524	
712.900	-10.178	
713.000	-19.995	
713.100	-21.822	
713.200	-9.978	
713.300	-19.742	
713.400	-22.534	
713.500	-21.579	
713.600	-11.872	
713.700	-4.340	
713.800	-28.377	
713.900	-30.015	
714.000	-16.864	
714.100	-26.661	
714.200	-12.667	
714.300	-18.370	
714.400	-23.118	
714.500	-18.200	
714.600	-30.978	
714.700	-16.114	
714.800	-11.423	
714.900	-20.664	
715.000	-12.910	
715.100	-27.909	
715.200	-15.528	
715.300	-13.761	
715.400	-8.089	
715.500	-22.009	
715.600	-18.940	
715.700	-15.718	
715.800	-19.719	
715.900	-23.150	
716.000	-13.073	
716.100	-20.122	
716.200	-23.810	
716.300	-30.936	
716.400	-6.705	
716.500	-13.585	
716.600	-31.373	
716.700	-13.265	
716.800	-25.188	
716.900	-21.506	
717.000	-18.285	
717.100	-21.522	
717.200	-9.485	
717.300	-23.614	
717.400	-8.394	
717.500	-16.676	
717.600	-17.360	
717.700	-4.609	
717.800	-14.493	
717.900	-23.790	
718.000	-23.583	
718.100	-27.720	
718.200	-9.201	
718.300	-25.411	
718.400	-13.345	
718.500	-4.852	
718.600	-10.279	
718.700	-23.787	
718.800	-17.393	
718.900	-8.371	
719.000	-20.467	
719.100	-9.498	
719.200	-22.040	
719.300	-28.245	
719.400	2.901	
719.500	-29.473	
719.600	-8.581	
719.700	-21.355	
719.800	-18.109	
719.900	-21.468	
720.000	-13.980	
720.100	-24.578	
720.200	-18.110	
720.300	-19.506	
720.400	-31.461	
720.500	-18.889	
720.600	-12.934	
720.700	-17.357	
720.800	-16.966	
720.900	-2.906	
721.000	-13.738	
721.100	-15.891	
721.200	-13.026	
721.300	-17.810	
721.400	-23.695	
721.500	-16.060	
721.600	-3.016	
721.700	-18.620	
721.800	-4.547	
721.900	-21.030	
722.000	-13.190	
722.100	-34.089	
722.200	-10.606	
722.300	-15.763	
722.400	-22.914	
722.500	-8.247	
722.600	-29.248	
722.700	-1.152	
722.800	-19.160	
722.900	-27.596	
723.000	-12.584	
723.100	-27.390	
723.200	-12.138	
723.300	-10.676	
723.400	-14.103	
723.500	-16.464	
723.600	-24.127	
723.700	-18.702	
723.800	-18.331	
723.900	-15.509	
724.000	-8.105	
724.100	-27.286	
724.200	-24.949	
724.300	-16.858	
724.400	-25.443	
724.500	-14.584	
724.600	-26.407	
724.700	-17.043	
724.800	-21.933	
724.900	-24.446	
725.000	-20.768	
725.100	-25.947	
725.200	-16.159	
725.300	-32.267	
725.400	-14.448	
725.500	-16.713	
725.600	-24.152	
725.700	-5.510	
725.800	-8.992	
725.900	-21.163	
726.000	-23.217	
726.100	-16.490	
726.200	-19.087	
726.300	-6.611	
726.400	-20.232	
726.500	-11.022	
726.600	-23.064	
726.700	-14.852	
726.800	-17.184	
726.900	-25.612	
727.000	-12.866	
727.100	-27.272	
727.200	-29.999	
727.300	-9.252	
727.400	-31.435	
727.500	-9.655	
727.600	-17.882	
727.700	-7.823	
727.800	-13.121	
727.900	-13.654	
728.000	-27.093	
728.100	-11.543	
728.200	-17.198	
728.300	-7.642	
728.400	0.956	
728.500	-26.024	
728.600	-25.121	
728.700	-22.505	
728.800	-15.664	
728.900	-10.147	
729.000	-12.364	
729.100	-27.580	
729.200	-11.282	
729.300	-16.371	
729.400	-15.992	
729.500	-15.681	
729.600	-15.791	
729.700	-17.858	
729.800	-23.049	
729.900	-23.060	
730.000	-13.322	
730.100	-10.306	
730.200	2.159	
730.300	-19.802	
730.400	-27.452	
730.500	-19.956	
730.600	-23.373	
730.700	-19.298	
730.800	-17.019	
730.900	-20.287	
731.000	-22.928	
731.100	-7.890	
731.200	-25.024	
731.300	-12.267	
731.400	-23.581	
731.500	-16.770	
731.600	-30.921	
731.700	-7.775	
731.800	-17.894	
731.900	-11.677	
732.000	-19.064	
732.100	-23.747	
732.200	-15.572	
732.300	-10.940	
732.400	-18.058	
732.500	-8.691	
732.600	-17.683	
732.700	-20.825	
732.800	-13.047	
732.900	1.462	
733.000	-19.251	
733.100	-14.909	
733.200	-6.653	
733.300	-6.062	
733.400	-38.415	
733.500	-17.151	
733.600	-9.301	
733.700	-9.729	
733.800	-9.974	
733.900	-8.385	
734.000	-18.266	
734.100	-34.883	
734.200	-15.477	
734.300	-18.656	
734.400	-12.868	
734.500	-14.772	
734.600	1.181	
734.700	-21.234	
734.800	-27.093	
734.900	-23.576	
735.000	-8.958	
735.100	-10.484	
735.200	-29.926	
735.300	-11.027	
735.400	-18.843	
735.500	-13.803	
735.600	-22.930	
735.700	-15.204	
735.800	-10.087	
735.900	-14.645	
736.000	-10.075	
736.100	-22.252	
736.200	0.616	
736.300	-20.847	
736.400	-11.943	
736.500	-20.206	
736.600	-38.074	
736.700	0.266	
736.800	-8.558	
736.900	-11.321	
737.000	5.760	
737.100	-15.615	
737.200	-16.775	
737.300	-14.761	
737.400	-23.787	
737.500	-5.384	
737.600	-10.419	
737.700	-15.322	
737.800	-7.700	
737.900	-30.397	
738.000	-28.714	
738.100	-12.342	
738.200	-26.397	
738.300	-21.083	
738.400	-17.663	
738.500	-11.405	
738.600	-18.842	
738.700	-14.980	
738.800	-17.474	
738.900	-15.966	
739.000	-1.859	
739.100	-29.938	
739.200	-8.544	
739.300	-28.698	
739.400	-15.871	
739.500	-12.795	
739.600	-12.026	
739.700	-4.664	
739.800	-16.417	
739.900	-20.130	
740.000	-8.326	
740.100	-21.187	
740.200	-1.924	
740.300	-18.967	
740.400	-17.454	
740.500	-30.783	
740.600	-16.984	
740.700	-10.141	
740.800	-15.256	
740.900	-17.661	
741.000	-6.570	
741.100	-19.389	
741.200	-11.709	
741.300	-25.452	
741.400	-22.887	
741.500	-12.859	
741.600	-3.002	
741.700	-15.798	
741.800	-15.822	
741.900	-5.978	
742.000	-6.169	
742.100	-19.296	
742.200	-15.006	
742.300	-19.475	
742.400	-5.894	
742.500	0.659	
742.600	-24.006	
742.700	-22.905	
742.800	-0.485	
742.900	-13.068	
743.000	-14.222	
743.100	-17.578	
743.200	-22.252	
743.300	-17.769	
743.400	-20.127	
743.500	-27.253	
743.600	3.643	
743.700	-15.992	
743.800	-18.135	
743.900	-15.625	
744.000	-14.812	
744.100	-12.860	
744.200	-11.656	
744.300	-22.360	
744.400	-7.849	
744.500	-17.762	
744.600	-22.433	
744.700	-23.107	
744.800	-7.227	
744.900	-16.810	
745.000	-12.295	
745.100	-3.190	
745.200	-10.012	
745.300	-24.009	
745.400	-14.377	
745.500	-4.860	
745.600	-8.890	
745.700	-14.500	
745.800	-9.880	
745.900	0.458	
746.000	-10.624	
746.100	-29.924	
746.200	-7.733	
746.300	-21.535	
746.400	-16.348	
746.500	-11.537	
746.600	-20.049	
746.700	-16.265	
746.800	-2.684	
746.900	-13.542	
747.000	-22.566	
747.100	-23.611	
747.200	-8.035	
747.300	-5.126	
747.400	-21.491	
747.500	-13.231	
747.600	-14.197	
747.700	-10.585	
747.800	-17.366	
747.900	-7.430	
748.000	-9.983	
748.100	-14.477	
748.200	-23.186	
748.300	-10.401	
748.400	-23.735	
748.500	-1.936	
748.600	-8.846	
748.700	-2.634	
748.800	-20.568	
748.900	-17.975	
749.000	3.960	
749.100	-15.258	
749.200	-9.030	
749.300	-17.310	
749.400	-14.119	
749.500	-13.053	
749.600	-22.726	
749.700	0.047	
749.800	-14.774	
749.900	-10.753	
750.000	-3.072	
750.100	-37.578	
750.200	-18.559	
750.300	-10.571	
750.400	-3.368	
750.500	-25.677	
750.600	-4.242	
750.700	6.136	
750.800	-15.047	
750.900	-14.229	
751.000	-20.183	
751.100	-24.305	
751.200	-18.575	
751.300	-13.195	
751.400	2.120	
751.500	-27.849	
751.600	-31.866	
751.700	-17.924	
751.800	-19.444	
751.900	-12.788	
752.000	-15.524	
752.100	-7.712	
752.200	-12.230	
752.300	-22.712	
752.400	-16.170	
752.500	-10.689	
752.600	-8.007	
752.700	-1.785	
752.800	-10.231	
752.900	-0.907	
753.000	-18.848	
753.100	-10.606	
753.200	-12.827	
753.300	-12.683	
753.400	-13.243	
753.500	1.124	
753.600	-9.075	
753.700	-17.533	
753.800	-29.539	
753.900	-5.155	
754.000	-2.069	
754.100	-19.554	
754.200	-15.628	
754.300	-9.014	
754.400	-20.325	
754.500	-18.685	
754.600	14.162	
754.700	-21.127	
754.800	-7.971	
754.900	-14.134	
755.000	-17.253	
755.100	-17.807	
755.200	-5.809	
755.300	-6.922	
755.400	-24.520	
755.500	6.140	
755.600	-6.267	
755.700	-4.581	
755.800	-20.063	
755.900	-22.224	
756.000	-8.214	
756.100	-18.528	
756.200	-14.950	
756.300	-4.563	
756.400	-10.076	
756.500	-20.441	
756.600	-8.929	
756.700	-8.618	
756.800	-15.068	
756.900	-7.529	
757.000	-11.279	
757.100	-15.410	
757.200	-15.130	
757.300	3.383	
757.400	-19.227	
757.500	-0.006	
757.600	0.373	
757.700	-12.037	
757.800	-18.600	
757.900	-20.405	
758.000	-21.849	
758.100	-15.338	
758.200	-22.110	
758.300	-5.467	
758.400	-13.523	
758.500	-14.573	
758.600	-21.470	
758.700	-2.868	
758.800	-17.814	
758.900	-24.375	
759.000	-4.515	
759.100	-13.356	
759.200	-6.602	
759.300	-6.833	
759.400	-8.173	
759.500	-17.413	
759.600	-16.837	
759.700	-4.263	
759.800	-8.543	
759.900	-23.943	
760.000	-8.262	
760.100	-18.841	
760.200	-7.436	
760.300	-2.757	
760.400	-7.569	
760.500	-20.402	
760.600	4.736	
760.700	-21.863	
760.800	-7.387	
760.900	-12.004	
761.000	-8.393	
761.100	-4.451	
761.200	-8.970	
761.300	-1.292	
761.400	-8.802	
761.500	-10.891	
761.600	-6.578	
761.700	-25.942	
761.800	-25.415	
761.900	-13.799	
762.000	-7.259	
762.100	-6.083	
762.200	-5.479	
762.300	5.669	
762.400	-18.803	
762.500	6.605	
762.600	-14.542	
762.700	-16.667	
762.800	-16.759	
762.900	-21.787	
763.000	6.381	
763.100	-17.351	
763.200	-22.769	
763.300	-0.566	
763.400	-9.534	
763.500	-15.800	
763.600	-16.210	
763.700	-4.650	
763.800	1.892	
763.900	-17.504	
764.000	-7.618	
764.100	-18.268	
764.200	-12.120	
764.300	-20.145	
764.400	-3.118	
764.500	-13.620	
764.600	-16.728	
764.700	-11.697	
764.800	-13.968	
764.900	-5.049	
765.000	-2.617	
765.100	-5.994	
765.200	-11.275	
765.300	-20.567	
765.400	-2.795	
765.500	-19.745	
765.600	-4.923	
765.700	-20.828	
765.800	-8.820	
765.900	9.822	
766.000	1.982	
766.100	-16.381	
766.200	-13.569	
766.300	9.813	
766.400	-17.448	
766.500	-6.678	
766.600	-14.674	
766.700	-14.786	
766.800	-14.696	
766.900	-4.589	
767.000	-9.390	
767.100	-15.585	
767.200	-4.845	
767.300	-3.597	
767.400	-22.709	
767.500	-3.815	
767.600	-12.072	
767.700	-11.207	
767.800	-22.471	
767.900	-13.510	
768.000	-13.106	
768.100	-14.769	
768.200	-8.921	
768.300	-25.334	
768.400	-8.112	
768.500	-3.596	
768.600	-18.214	
768.700	0.863	
768.800	-6.136	
768.900	-0.936	
769.000	-11.569	
769.100	-11.355	
769.200	-5.183	
769.300	-16.394	
769.400	-6.147	
769.500	-12.501	
769.600	-2.408	
769.700	-8.240	
769.800	-10.430	
769.900	-15.517	
770.000	-4.539	
770.100	-10.329	
770.200	-7.977	
770.300	-7.991	
770.400	-9.208	
770.500	-11.808	
770.600	-17.759	
770.700	4.728	
770.800	10.297	
770.900	-10.787	
771.000	-8.522	
771.100	-15.144	
771.200	-5.569	
771.300	-9.518	
771.400	-13.802	
771.500	-15.993	
771.600	-24.368	
771.700	-8.713	
771.800	-30.818	
771.900	-11.013	
772.000	0.597	
772.100	-13.078	
772.200	-20.514	
772.300	-16.600	
772.400	-0.996	
772.500	-5.502	
772.600	-18.490	
772.700	-8.366	
772.800	-14.263	
772.900	-9.485	
773.000	-11.144	
773.100	-3.265	
773.200	-18.085	
773.300	-19.436	
773.400	-5.299	
773.500	-7.678	
773.600	-0.568	
773.700	7.326	
773.800	-9.199	
773.900	-17.625	
774.000	-4.036	
774.100	-1.126	
774.200	-8.821	
774.300	-8.672	
774.400	-7.860	
774.500	-18.969	
774.600	-11.164	
774.700	-16.895	
774.800	-14.280	
774.900	-17.660	
775.000	-26.105	
775.100	-17.853	
775.200	-5.488	
775.300	-18.681	
775.400	0.220	
775.500	-0.700	
775.600	-20.435	
775.700	-21.448	
775.800	-7.541	
775.900	4.695	
776.000	-4.834	
776.100	-3.625	
776.200	-6.766	
776.300	-3.440	
776.400	-16.172	
776.500	-16.204	
776.600	2.892	
776.700	-8.971	
776.800	-16.888	
776.900	2.148	
777.000	-12.341	
777.100	-11.774	
777.200	0.514	
777.300	-4.293	
777.400	-17.418	
777.500	-4.051	
777.600	-15.691	
777.700	-15.762	
777.800	-11.015	
777.900	-16.610	
778.000	-1.932	
778.100	-15.577	
778.200	-18.018	
778.300	8.119	
778.400	7.882	
778.500	-8.620	
778.600	0.042	
778.700	-18.485	
778.800	-18.281	
778.900	-8.607	
779.000	-1.838	
779.100	-21.580	
779.200	2.600	
779.300	-11.172	
779.400	4.533	
779.500	-34.258	
779.600	-12.005	
779.700	2.159	
779.800	-8.295	
779.900	-11.365	
780.000	-10.186	
780.100	-4.544	
780.200	-18.667	
780.300	4.565	
780.400	1.430	
780.500	13.617	
780.600	8.999	
780.700	7.791	
780.800	28.306	
780.900	29.701	
781.000	33.821	
781.100	42.627	
781.200	17.032	
781.300	24.510	
781.400	19.824	
781.500	34.687	
781.600	34.205	
781.700	34.967	
781.800	30.539	
781.900	38.228	
782.000	30.143	
782.100	40.977	
782.200	25.372	
782.300	30.943	
782.400	28.851	
782.500	40.744	
782.600	24.913	
782.700	13.605	
782.800	26.583	
782.900	30.565	
783.000	40.190	
783.100	22.364	
783.200	48.624	
783.300	26.681	
783.400	20.658	
783.500	24.331	
783.600	24.119	
783.700	20.513	
783.800	33.609	
783.900	28.471	
784.000	35.133	
784.100	24.494	
784.200	20.580	
784.300	20.978	
784.400	19.103	
784.500	29.548	
784.600	26.786	
784.700	17.538	
784.800	30.769	
784.900	7.548	
785.000	29.018	
785.100	9.015	
785.200	26.108	
785.300	31.013	
785.400	33.692	
785.500	10.698	
785.600	23.503	
785.700	24.029	
785.800	37.450	
785.900	14.794	
786.000	21.830	
786.100	29.275	
786.200	13.526	
786.300	20.399	
786.400	15.790	
786.500	27.918	
786.600	21.795	
786.700	29.153	
786.800	4.170	
786.900	30.075	
787.000	19.612	
787.100	33.768	
787.200	20.636	
787.300	27.836	
787.400	20.991	
787.500	24.035	
787.600	25.477	
787.700	20.297	
787.800	28.252	
787.900	26.591	
788.000	33.674	
788.100	20.083	
788.200	24.367	
788.300	18.645	
788.400	24.010	
788.500	15.646	
788.600	33.389	
788.700	29.546	
788.800	23.422	
788.900	28.751	
789.000	30.043	
789.100	31.547	
789.200	27.126	
789.300	28.173	
789.400	47.612	
789.500	8.901	
789.600	35.662	
789.700	29.539	
789.800	40.885	
789.900	28.377	
790.000	36.120	
790.100	41.270	
790.200	22.968	
790.300	28.536	
790.400	41.455	
790.500	28.781	
790.600	32.476	
790.700	44.184	
790.800	26.529	
790.900	31.115	
791.000	26.876	
791.100	30.706	
791.200	35.822	
791.300	24.040	
791.400	44.260	
791.500	34.745	
791.600	44.565	
791.700	31.919	
791.800	36.790	
791.900	34.740	
792.000	41.110	
792.100	40.007	
792.200	25.806	
792.300	31.624	
792.400	43.827	
792.500	38.135	
792.600	32.806	
792.700	21.339	
792.800	48.227	
792.900	44.820	
793.000	40.311	
793.100	36.966	
793.200	42.271	
793.300	36.625	
793.400	45.138	
793.500	40.581	
793.600	41.032	
793.700	24.955	
793.800	35.711	
793.900	32.817	
794.000	43.434	
794.100	44.754	
794.200	40.587	
794.300	38.989	
794.400	45.865	
794.500	45.344	
794.600	45.142	
794.700	46.825	
794.800	49.371	
794.900	39.751	
795.000	57.870	
795.100	48.921	
795.200	38.568	
795.300	42.569	
795.400	47.747	
795.500	40.693	
795.600	53.290	
795.700	48.510	
795.800	47.535	
795.900	54.736	
796.000	45.942	
796.100	53.858	
796.200	38.634	
796.300	40.164	
796.400	49.295	
796.500	56.656	
796.600	37.013	
796.700	50.299	
796.800	44.404	
796.900	54.943	
797.000	39.821	
797.100	47.899	
797.200	32.089	
797.300	37.063	
797.400	48.144	
797.500	50.201	
797.600	57.108	
797.700	52.423	
797.800	35.730	
797.900	47.535	
798.000	58.001	
798.100	47.222	
798.200	41.693	
798.300	58.856	
798.400	52.020	
798.500	52.269	
798.600	45.692	
798.700	38.220	
798.800	40.433	
798.900	53.387	
799.000	42.877	
799.100	43.544	
799.200	51.920	
799.300	36.576	
799.400	52.429	
799.500	42.199	
799.600	59.863	
799.700	46.231	
799.800	43.701	
799.900	64.745	
800.000	52.522	
