time /s	I /nA	
0.100	14.824	
0.200	1.737	
0.300	-6.786	
0.400	-10.434	
0.500	-3.475	
0.600	5.907	
0.700	-13.041	
0.800	-11.663	
0.900	6.903	
1.000	-13.606	
1.100	0.273	
1.200	-6.534	
1.300	-16.911	
1.400	8.288	
1.500	-13.927	
1.600	-1.329	
1.700	-6.620	
1.800	-6.466	
1.900	4.370	
2.000	-11.569	
2.100	-7.639	
2.200	-0.648	
2.300	-0.405	
2.400	0.810	
2.500	-6.080	
2.600	-9.843	
2.700	-7.572	
2.800	-6.564	
2.900	-1.904	
3.000	-10.254	
3.100	0.911	
3.200	0.847	
3.300	-13.191	
3.400	8.968	
3.500	-0.017	
3.600	-8.868	
3.700	-2.996	
3.800	-6.779	
3.900	-13.567	
4.000	4.098	
4.100	-6.906	
4.200	-10.150	
4.300	-2.698	
4.400	-2.306	
4.500	-16.432	
4.600	-14.968	
4.700	-5.674	
4.800	6.495	
4.900	-5.441	
5.000	-6.814	
5.100	-5.224	
5.200	-0.919	
5.300	-2.770	
5.400	-4.907	
5.500	3.613	
5.600	2.026	
5.700	-10.236	
5.800	-4.520	
5.900	-22.494	
6.000	1.286	
6.100	2.160	
6.200	-0.721	
6.300	-12.140	
6.400	-12.279	
6.500	0.361	
6.600	-4.165	
6.700	-12.356	
6.800	-8.157	
6.900	2.875	
7.000	4.639	
7.100	-7.105	
7.200	-28.449	
7.300	0.694	
7.400	-8.182	
7.500	-4.136	
7.600	-3.189	
7.700	-8.085	
7.800	3.333	
7.900	-9.839	
8.000	-3.531	
8.100	-6.335	
8.200	-1.953	
8.300	-3.733	
8.400	-5.907	
8.500	-5.719	
8.600	-13.137	
8.700	-5.283	
8.800	-2.558	
8.900	-5.443	
9.000	-5.673	
9.100	-4.975	
9.200	-21.597	
9.300	-11.098	
9.400	-7.028	
9.500	1.865	
9.600	1.131	
9.700	-15.454	
9.800	-5.915	
9.900	7.246	
10.000	-18.344	
10.100	-18.583	
10.200	-1.610	
10.300	12.235	
10.400	-13.742	
10.500	-13.098	
10.600	-8.116	
10.700	-8.960	
10.800	-17.569	
10.900	-2.509	
11.000	2.836	
11.100	-5.028	
11.200	-8.992	
11.300	-0.257	
11.400	0.374	
11.500	-1.648	
11.600	-2.114	
11.700	-12.202	
11.800	-7.817	
11.900	-0.518	
12.000	3.439	
12.100	-20.490	
12.200	9.608	
12.300	-3.631	
12.400	-5.330	
12.500	-2.320	
12.600	-9.940	
12.700	-18.608	
12.800	-4.123	
12.900	-4.824	
13.000	-8.960	
13.100	-6.353	
13.200	-2.392	
13.300	-0.739	
13.400	-17.526	
13.500	-8.679	
13.600	-8.640	
13.700	-0.509	
13.800	0.014	
13.900	-18.878	
14.000	-11.727	
14.100	-5.708	
14.200	-6.237	
14.300	0.131	
14.400	-10.612	
14.500	-3.247	
14.600	-0.206	
14.700	-9.491	
14.800	0.192	
14.900	-8.626	
15.000	0.406	
15.100	-6.193	
15.200	-2.465	
15.300	-3.418	
15.400	-12.523	
15.500	-14.058	
15.600	-4.703	
15.700	2.318	
15.800	-8.533	
15.900	-6.633	
16.000	3.032	
16.100	-3.346	
16.200	5.433	
16.300	-2.008	
16.400	8.319	
16.500	-7.733	
16.600	-3.314	
16.700	-9.646	
16.800	6.976	
16.900	-12.921	
17.000	-4.685	
17.100	-0.186	
17.200	5.221	
17.300	0.710	
17.400	-0.068	
17.500	-7.437	
17.600	-0.035	
17.700	-0.541	
17.800	-2.004	
17.900	-4.456	
18.000	-11.018	
18.100	-16.945	
18.200	-7.973	
18.300	-12.743	
18.400	-14.327	
18.500	-3.809	
18.600	-9.413	
18.700	-8.604	
18.800	-8.562	
18.900	-8.690	
19.000	-8.131	
19.100	-4.300	
19.200	-1.623	
19.300	-4.656	
19.400	-11.245	
19.500	-18.488	
19.600	-4.526	
19.700	4.397	
19.800	-8.001	
19.900	4.166	
20.000	-7.183	
20.100	4.866	
20.200	-6.390	
20.300	7.285	
20.400	-21.150	
20.500	2.329	
20.600	-1.721	
20.700	-10.506	
20.800	-6.491	
20.900	4.861	
21.000	-5.001	
21.100	-4.770	
21.200	2.167	
21.300	-8.441	
21.400	-8.345	
21.500	10.285	
21.600	-7.698	
21.700	6.653	
21.800	-5.388	
21.900	-4.884	
22.000	-6.884	
22.100	4.985	
22.200	-9.002	
22.300	-5.079	
22.400	-8.243	
22.500	7.766	
22.600	-18.278	
22.700	-8.223	
22.800	25.710	
22.900	-10.425	
23.000	-7.521	
23.100	1.234	
23.200	2.853	
23.300	4.539	
23.400	-15.691	
23.500	-6.210	
23.600	-2.701	
23.700	-15.057	
23.800	-14.689	
23.900	-11.419	
24.000	-1.255	
24.100	6.545	
24.200	-0.279	
24.300	14.571	
24.400	-5.068	
24.500	-8.454	
24.600	1.945	
24.700	-5.186	
24.800	-6.706	
24.900	-14.061	
25.000	3.598	
25.100	2.661	
25.200	-8.204	
25.300	-9.934	
25.400	0.037	
25.500	-7.835	
25.600	-0.597	
25.700	-5.536	
25.800	-2.427	
25.900	-6.567	
26.000	-14.493	
26.100	-9.959	
26.200	-1.315	
26.300	1.267	
26.400	10.476	
26.500	-11.753	
26.600	-18.711	
26.700	-1.305	
26.800	-16.038	
26.900	-0.509	
27.000	-12.022	
27.100	-5.079	
27.200	-5.224	
27.300	-1.589	
27.400	-2.860	
27.500	-8.070	
27.600	3.884	
27.700	-2.549	
27.800	2.896	
27.900	-7.027	
28.000	-6.241	
28.100	-5.601	
28.200	-5.940	
28.300	-0.130	
28.400	-14.063	
28.500	3.847	
28.600	-11.982	
28.700	-18.725	
28.800	-10.337	
28.900	-3.466	
29.000	-8.010	
29.100	-1.003	
29.200	-14.926	
29.300	-6.713	
29.400	-4.904	
29.500	8.811	
29.600	-11.011	
29.700	-1.905	
29.800	1.472	
29.900	6.683	
30.000	4.150	
30.100	9.738	
30.200	19.416	
30.300	18.812	
30.400	12.616	
30.500	15.895	
30.600	36.992	
30.700	20.489	
30.800	36.822	
30.900	34.113	
31.000	42.300	
31.100	36.572	
31.200	46.254	
31.300	33.519	
31.400	50.762	
31.500	49.520	
31.600	30.225	
31.700	40.878	
31.800	28.008	
31.900	42.501	
32.000	36.873	
32.100	43.444	
32.200	41.307	
32.300	44.830	
32.400	37.066	
32.500	26.726	
32.600	44.189	
32.700	42.665	
32.800	29.394	
32.900	33.728	
33.000	37.962	
33.100	29.536	
33.200	40.590	
33.300	36.498	
33.400	18.847	
33.500	20.314	
33.600	26.644	
33.700	29.520	
33.800	22.191	
33.900	51.269	
34.000	19.028	
34.100	27.767	
34.200	34.243	
34.300	29.654	
34.400	17.674	
34.500	27.444	
34.600	33.017	
34.700	26.070	
34.800	35.154	
34.900	13.426	
35.000	42.601	
35.100	24.247	
35.200	13.812	
35.300	27.635	
35.400	33.203	
35.500	22.356	
35.600	30.080	
35.700	30.395	
35.800	25.654	
35.900	10.764	
36.000	40.579	
36.100	28.982	
36.200	33.808	
36.300	39.575	
36.400	22.684	
36.500	40.377	
36.600	33.033	
36.700	17.150	
36.800	18.452	
36.900	40.201	
37.000	18.758	
37.100	38.954	
37.200	26.610	
37.300	35.337	
37.400	27.608	
37.500	44.780	
37.600	30.982	
37.700	37.927	
37.800	29.738	
37.900	28.992	
38.000	41.107	
38.100	39.520	
38.200	33.364	
38.300	20.421	
38.400	21.227	
38.500	45.700	
38.600	33.907	
38.700	58.439	
38.800	41.871	
38.900	37.690	
39.000	41.540	
39.100	26.999	
39.200	38.996	
39.300	26.782	
39.400	43.002	
39.500	37.061	
39.600	43.427	
39.700	44.535	
39.800	27.292	
39.900	46.188	
40.000	32.414	
40.100	37.784	
40.200	40.423	
40.300	30.632	
40.400	60.378	
40.500	42.310	
40.600	48.867	
40.700	39.143	
40.800	26.429	
40.900	49.850	
41.000	55.136	
41.100	38.982	
41.200	30.263	
41.300	41.526	
41.400	42.469	
41.500	46.059	
41.600	44.797	
41.700	35.895	
41.800	54.197	
41.900	34.899	
42.000	41.258	
42.100	64.299	
42.200	28.768	
42.300	53.398	
42.400	37.336	
42.500	42.847	
42.600	53.367	
42.700	36.995	
42.800	60.247	
42.900	39.941	
43.000	42.513	
43.100	62.678	
43.200	36.966	
43.300	37.098	
43.400	48.621	
43.500	48.152	
43.600	46.951	
43.700	48.680	
43.800	24.119	
43.900	29.290	
44.000	47.005	
44.100	42.058	
44.200	44.482	
44.300	40.448	
44.400	35.556	
44.500	54.034	
44.600	52.426	
44.700	43.385	
44.800	35.677	
44.900	52.982	
45.000	57.565	
45.100	49.058	
45.200	46.385	
45.300	40.514	
45.400	58.201	
45.500	43.791	
45.600	48.819	
45.700	43.800	
45.800	48.337	
45.900	48.176	
46.000	53.537	
46.100	40.738	
46.200	50.312	
46.300	50.245	
46.400	50.649	
46.500	55.681	
46.600	37.401	
46.700	49.833	
46.800	49.028	
46.900	50.826	
47.000	38.518	
47.100	42.277	
47.200	53.626	
47.300	40.029	
47.400	41.616	
47.500	43.019	
47.600	39.692	
47.700	52.030	
47.800	70.305	
47.900	36.612	
48.000	37.253	
48.100	51.796	
48.200	43.205	
48.300	50.932	
48.400	49.411	
48.500	48.338	
48.600	39.214	
48.700	56.458	
48.800	39.423	
48.900	37.684	
49.000	39.877	
49.100	44.822	
49.200	57.065	
49.300	49.705	
49.400	36.457	
49.500	38.677	
49.600	35.600	
49.700	58.289	
49.800	52.222	
49.900	48.964	
50.000	43.139	
50.100	35.039	
50.200	50.921	
50.300	44.038	
50.400	45.156	
50.500	36.954	
50.600	51.034	
50.700	50.556	
50.800	44.449	
50.900	51.929	
51.000	43.725	
51.100	41.706	
51.200	31.326	
51.300	35.889	
51.400	45.835	
51.500	32.095	
51.600	37.103	
51.700	42.304	
51.800	53.685	
51.900	35.743	
52.000	51.977	
52.100	53.918	
52.200	45.007	
52.300	39.390	
52.400	44.982	
52.500	38.508	
52.600	37.775	
52.700	48.483	
52.800	37.859	
52.900	55.376	
53.000	44.751	
53.100	44.827	
53.200	58.252	
53.300	46.942	
53.400	46.950	
53.500	47.903	
53.600	48.479	
53.700	26.769	
53.800	41.557	
53.900	45.819	
54.000	45.985	
54.100	41.568	
54.200	32.880	
54.300	44.398	
54.400	30.186	
54.500	59.051	
54.600	43.993	
54.700	39.010	
54.800	37.022	
54.900	43.284	
55.000	49.295	
55.100	43.200	
55.200	38.236	
55.300	34.424	
55.400	40.968	
55.500	57.079	
55.600	35.549	
55.700	36.674	
55.800	37.950	
55.900	28.839	
56.000	44.590	
56.100	43.765	
56.200	45.103	
56.300	32.710	
56.400	37.596	
56.500	42.950	
56.600	41.249	
56.700	41.626	
56.800	43.460	
56.900	43.581	
57.000	66.897	
57.100	38.884	
57.200	26.822	
57.300	58.687	
57.400	43.955	
57.500	40.509	
57.600	36.807	
57.700	50.042	
57.800	30.946	
57.900	45.260	
58.000	41.835	
58.100	54.822	
58.200	52.298	
58.300	38.156	
58.400	42.226	
58.500	41.361	
58.600	45.685	
58.700	43.801	
58.800	49.341	
58.900	36.595	
59.000	55.165	
59.100	40.638	
59.200	45.592	
59.300	48.830	
59.400	39.596	
59.500	38.268	
59.600	35.988	
59.700	38.207	
59.800	30.566	
59.900	48.713	
60.000	33.387	
60.100	53.099	
60.200	35.577	
60.300	33.345	
60.400	46.515	
60.500	31.832	
60.600	38.526	
60.700	36.969	
60.800	24.969	
60.900	52.874	
61.000	28.846	
61.100	41.906	
61.200	34.148	
61.300	42.816	
61.400	34.809	
61.500	42.403	
61.600	51.622	
61.700	34.488	
61.800	47.011	
61.900	41.419	
62.000	37.642	
62.100	45.541	
62.200	40.133	
62.300	50.093	
62.400	32.892	
62.500	25.123	
62.600	38.257	
62.700	45.934	
62.800	40.213	
62.900	43.541	
63.000	44.017	
63.100	38.724	
63.200	51.410	
63.300	14.933	
63.400	44.002	
63.500	65.067	
63.600	28.465	
63.700	40.129	
63.800	43.302	
63.900	44.651	
64.000	36.557	
64.100	39.338	
64.200	46.808	
64.300	31.649	
64.400	46.536	
64.500	48.171	
64.600	35.305	
64.700	44.080	
64.800	36.602	
64.900	46.777	
65.000	36.814	
65.100	44.206	
65.200	45.708	
65.300	44.705	
65.400	37.988	
65.500	45.947	
65.600	44.992	
65.700	49.852	
65.800	47.464	
65.900	29.900	
66.000	44.928	
66.100	35.623	
66.200	39.489	
66.300	52.245	
66.400	50.619	
66.500	25.868	
66.600	32.936	
66.700	29.158	
66.800	46.600	
66.900	41.680	
67.000	33.245	
67.100	42.932	
67.200	42.233	
67.300	46.521	
67.400	43.320	
67.500	30.342	
67.600	35.504	
67.700	36.988	
67.800	35.258	
67.900	30.719	
68.000	36.565	
68.100	35.375	
68.200	52.722	
68.300	41.227	
68.400	44.145	
68.500	46.788	
68.600	58.255	
68.700	24.918	
68.800	38.064	
68.900	19.262	
69.000	47.658	
69.100	48.204	
69.200	50.160	
69.300	26.516	
69.400	41.593	
69.500	38.470	
69.600	38.885	
69.700	38.557	
69.800	46.522	
69.900	47.117	
70.000	47.322	
70.100	41.952	
70.200	44.354	
70.300	37.102	
70.400	33.531	
70.500	44.571	
70.600	48.987	
70.700	35.176	
70.800	45.143	
70.900	34.715	
71.000	36.736	
71.100	43.413	
71.200	43.367	
71.300	53.196	
71.400	40.943	
71.500	37.759	
71.600	36.457	
71.700	39.976	
71.800	43.808	
71.900	30.298	
72.000	37.939	
72.100	44.298	
72.200	50.128	
72.300	36.332	
72.400	47.520	
72.500	47.786	
72.600	43.795	
72.700	26.034	
72.800	48.832	
72.900	57.920	
73.000	43.701	
73.100	36.291	
73.200	36.730	
73.300	46.936	
73.400	37.578	
73.500	46.083	
73.600	60.179	
73.700	39.572	
73.800	45.898	
73.900	41.226	
74.000	14.612	
74.100	50.148	
74.200	48.099	
74.300	33.525	
74.400	31.147	
74.500	54.441	
74.600	30.443	
74.700	45.007	
74.800	45.455	
74.900	26.854	
75.000	43.891	
75.100	37.952	
75.200	44.489	
75.300	37.877	
75.400	67.148	
75.500	22.819	
75.600	46.286	
75.700	38.755	
75.800	42.131	
75.900	40.712	
76.000	31.248	
76.100	46.398	
76.200	31.092	
76.300	40.515	
76.400	41.398	
76.500	41.907	
76.600	43.578	
76.700	50.213	
76.800	45.825	
76.900	48.991	
77.000	37.534	
77.100	44.516	
77.200	39.622	
77.300	49.263	
77.400	37.243	
77.500	45.420	
77.600	39.532	
77.700	48.412	
77.800	28.823	
77.900	53.491	
78.000	47.749	
78.100	46.369	
78.200	37.467	
78.300	31.831	
78.400	46.141	
78.500	38.137	
78.600	35.763	
78.700	42.572	
78.800	41.341	
78.900	31.221	
79.000	32.670	
79.100	38.863	
79.200	32.892	
79.300	34.074	
79.400	51.544	
79.500	44.919	
79.600	48.084	
79.700	47.045	
79.800	33.847	
79.900	36.286	
80.000	45.131	
80.100	38.642	
80.200	47.842	
80.300	46.211	
80.400	43.520	
80.500	37.377	
80.600	50.928	
80.700	39.598	
80.800	42.723	
80.900	43.485	
81.000	46.985	
81.100	38.234	
81.200	29.221	
81.300	47.061	
81.400	46.531	
81.500	43.622	
81.600	53.745	
81.700	38.560	
81.800	42.421	
81.900	43.655	
82.000	38.460	
82.100	39.971	
82.200	38.168	
82.300	38.715	
82.400	44.235	
82.500	41.948	
82.600	32.669	
82.700	49.015	
82.800	43.922	
82.900	45.276	
83.000	50.894	
83.100	32.215	
83.200	46.538	
83.300	52.571	
83.400	37.883	
83.500	32.356	
83.600	36.410	
83.700	38.752	
83.800	47.318	
83.900	51.997	
84.000	42.095	
84.100	51.139	
84.200	42.522	
84.300	42.222	
84.400	40.009	
84.500	49.097	
84.600	58.106	
84.700	29.919	
84.800	54.626	
84.900	45.483	
85.000	45.825	
85.100	43.519	
85.200	42.177	
85.300	50.202	
85.400	48.309	
85.500	41.708	
85.600	40.278	
85.700	48.784	
85.800	45.019	
85.900	35.909	
86.000	42.127	
86.100	26.081	
86.200	56.614	
86.300	43.229	
86.400	38.321	
86.500	45.756	
86.600	40.432	
86.700	49.569	
86.800	39.936	
86.900	44.855	
87.000	50.730	
87.100	42.802	
87.200	43.045	
87.300	49.145	
87.400	43.709	
87.500	40.720	
87.600	47.914	
87.700	57.827	
87.800	44.023	
87.900	32.782	
88.000	64.805	
88.100	53.754	
88.200	49.619	
88.300	39.202	
88.400	47.391	
88.500	47.107	
88.600	44.660	
88.700	34.884	
88.800	36.502	
88.900	42.329	
89.000	28.399	
89.100	23.682	
89.200	37.763	
89.300	58.868	
89.400	48.383	
89.500	52.547	
89.600	40.941	
89.700	43.173	
89.800	45.157	
89.900	30.376	
90.000	38.697	
90.100	49.919	
90.200	49.055	
90.300	39.934	
90.400	34.736	
90.500	32.073	
90.600	19.126	
90.700	25.668	
90.800	4.583	
90.900	2.217	
91.000	3.291	
91.100	-1.434	
91.200	-4.337	
91.300	12.390	
91.400	4.457	
91.500	-3.200	
91.600	-4.328	
91.700	-14.960	
91.800	-20.671	
91.900	-13.120	
92.000	-21.771	
92.100	-23.670	
92.200	-31.621	
92.300	-29.657	
92.400	-32.940	
92.500	-30.013	
92.600	-17.918	
92.700	-42.717	
92.800	-35.350	
92.900	-38.630	
93.000	-38.574	
93.100	-36.604	
93.200	-24.829	
93.300	-48.316	
93.400	-38.392	
93.500	-32.963	
93.600	-36.273	
93.700	-36.907	
93.800	-48.000	
93.900	-24.384	
94.000	-39.219	
94.100	-46.529	
94.200	-27.345	
94.300	-26.808	
94.400	-48.231	
94.500	-53.669	
94.600	-40.353	
94.700	-32.373	
94.800	-28.235	
94.900	-38.502	
95.000	-41.811	
95.100	-44.526	
95.200	-37.443	
95.300	-45.545	
95.400	-38.993	
95.500	-41.065	
95.600	-31.902	
95.700	-37.683	
95.800	-30.743	
95.900	-23.730	
96.000	-37.077	
96.100	-34.823	
96.200	-34.082	
96.300	-47.565	
96.400	-36.939	
96.500	-29.624	
96.600	-22.805	
96.700	-20.557	
96.800	-38.312	
96.900	-30.952	
97.000	-40.949	
97.100	-15.853	
97.200	-15.101	
97.300	-24.285	
97.400	-18.950	
97.500	-16.623	
97.600	-31.658	
97.700	-24.745	
97.800	-15.940	
97.900	-25.712	
98.000	-32.044	
98.100	-29.786	
98.200	-21.201	
98.300	-27.263	
98.400	-34.441	
98.500	-6.410	
98.600	-21.750	
98.700	-31.374	
98.800	-21.849	
98.900	-23.470	
99.000	-18.019	
99.100	-29.148	
99.200	-22.194	
99.300	-23.088	
99.400	-30.945	
99.500	-14.676	
99.600	-27.545	
99.700	-15.649	
99.800	-11.626	
99.900	-42.027	
100.000	-16.994	
100.100	-22.329	
100.200	-18.526	
100.300	-20.056	
100.400	-20.296	
100.500	-12.706	
100.600	-34.179	
100.700	-17.213	
100.800	-18.756	
100.900	-27.903	
101.000	-10.825	
101.100	-15.011	
101.200	-17.397	
101.300	-19.589	
101.400	-30.301	
101.500	-19.974	
101.600	-21.420	
101.700	-13.965	
101.800	-13.660	
101.900	-14.890	
102.000	-17.960	
102.100	-21.808	
102.200	-22.066	
102.300	-12.029	
102.400	-21.990	
102.500	-24.883	
102.600	-18.615	
102.700	-18.076	
102.800	-24.521	
102.900	-12.468	
103.000	-18.556	
103.100	-33.018	
103.200	-34.681	
103.300	-14.082	
103.400	-7.847	
103.500	-19.944	
103.600	-25.702	
103.700	-14.618	
103.800	-13.933	
103.900	-17.067	
104.000	-20.096	
104.100	-14.874	
104.200	-27.728	
104.300	-13.516	
104.400	-23.058	
104.500	-23.154	
104.600	-16.929	
104.700	-11.259	
104.800	-24.251	
104.900	-21.978	
105.000	-11.548	
105.100	-8.159	
105.200	-23.959	
105.300	-26.280	
105.400	-16.488	
105.500	-33.507	
105.600	-23.944	
105.700	-18.189	
105.800	-12.995	
105.900	-13.927	
106.000	-17.328	
106.100	-14.786	
106.200	-23.809	
106.300	-13.242	
106.400	-32.938	
106.500	-17.578	
106.600	-21.235	
106.700	-19.863	
106.800	-18.824	
106.900	-27.057	
107.000	-18.354	
107.100	-11.771	
107.200	-24.034	
107.300	-22.545	
107.400	-13.897	
107.500	-12.093	
107.600	-18.196	
107.700	-25.121	
107.800	-22.570	
107.900	-16.150	
108.000	-28.711	
108.100	-30.555	
108.200	-2.029	
108.300	-39.445	
108.400	-19.098	
108.500	-15.355	
108.600	-19.890	
108.700	-9.353	
108.800	-18.940	
108.900	-17.333	
109.000	-15.526	
109.100	-18.149	
109.200	-26.166	
109.300	-6.908	
109.400	-12.262	
109.500	-16.655	
109.600	-14.843	
109.700	-31.342	
109.800	-19.460	
109.900	-6.615	
110.000	-23.633	
110.100	-27.044	
110.200	-15.039	
110.300	3.715	
110.400	-16.548	
110.500	-19.737	
110.600	-31.054	
110.700	-28.056	
110.800	-8.991	
110.900	-13.581	
111.000	-20.705	
111.100	-15.565	
111.200	-21.637	
111.300	-28.769	
111.400	-10.641	
111.500	-9.933	
111.600	-19.687	
111.700	-16.911	
111.800	-10.517	
111.900	-10.932	
112.000	-20.404	
112.100	-13.363	
112.200	-16.055	
112.300	-24.971	
112.400	-23.851	
112.500	-20.779	
112.600	-19.317	
112.700	-2.897	
112.800	-11.447	
112.900	-8.344	
113.000	-17.086	
113.100	-24.627	
113.200	-21.683	
113.300	-27.265	
113.400	-3.118	
113.500	-10.834	
113.600	-23.316	
113.700	-19.831	
113.800	-21.593	
113.900	-22.716	
114.000	-14.749	
114.100	-11.207	
114.200	-12.572	
114.300	-18.054	
114.400	-21.664	
114.500	-18.818	
114.600	-24.135	
114.700	-9.077	
114.800	-6.672	
114.900	-13.811	
115.000	-8.981	
115.100	9.479	
115.200	-22.565	
115.300	-21.120	
115.400	-20.294	
115.500	-16.464	
115.600	-5.942	
115.700	-16.809	
115.800	-20.903	
115.900	-26.069	
116.000	1.128	
116.100	-9.470	
116.200	-17.798	
116.300	-12.112	
116.400	-15.066	
116.500	-7.747	
116.600	-26.633	
116.700	-20.823	
116.800	-16.587	
116.900	-6.976	
117.000	-13.594	
117.100	-30.679	
117.200	-7.368	
117.300	-14.237	
117.400	-27.622	
117.500	-13.081	
117.600	-17.112	
117.700	-13.351	
117.800	0.752	
117.900	-24.532	
118.000	-29.960	
118.100	-29.127	
118.200	-7.436	
118.300	-22.142	
118.400	-11.731	
118.500	-14.247	
118.600	-30.775	
118.700	-20.943	
118.800	1.812	
118.900	-10.592	
119.000	-16.796	
119.100	-14.232	
119.200	-9.011	
119.300	-19.381	
119.400	-21.261	
119.500	-13.707	
119.600	-9.885	
119.700	-17.121	
119.800	-16.584	
119.900	-8.256	
120.000	-10.069	
120.100	-16.983	
120.200	-13.253	
120.300	0.139	
120.400	-13.898	
120.500	-7.200	
120.600	-12.281	
120.700	-21.134	
120.800	-18.939	
120.900	-18.758	
121.000	-14.758	
121.100	-14.298	
121.200	-24.863	
121.300	-10.792	
121.400	-24.275	
121.500	-19.243	
121.600	-7.783	
121.700	-16.827	
121.800	-36.040	
121.900	-9.708	
122.000	-16.666	
122.100	-16.287	
122.200	-12.992	
122.300	-4.605	
122.400	-12.862	
122.500	-10.984	
122.600	-14.388	
122.700	-21.001	
122.800	-1.399	
122.900	-8.592	
123.000	-8.784	
123.100	-19.211	
123.200	-22.308	
123.300	-12.958	
123.400	-15.528	
123.500	-7.928	
123.600	-17.462	
123.700	-18.566	
123.800	-15.885	
123.900	-20.305	
124.000	-11.324	
124.100	-12.199	
124.200	-7.673	
124.300	-21.661	
124.400	-24.849	
124.500	-21.572	
124.600	-24.194	
124.700	-2.896	
124.800	-12.555	
124.900	-12.259	
125.000	-27.595	
125.100	-7.112	
125.200	-15.515	
125.300	-1.963	
125.400	-8.822	
125.500	-20.861	
125.600	-17.515	
125.700	-6.643	
125.800	-16.579	
125.900	-20.200	
126.000	-12.356	
126.100	-10.746	
126.200	-4.794	
126.300	-4.741	
126.400	-36.927	
126.500	-11.517	
126.600	-7.548	
126.700	-14.461	
126.800	-29.667	
126.900	-17.142	
127.000	-32.079	
127.100	-5.098	
127.200	-16.794	
127.300	-15.248	
127.400	-28.418	
127.500	-4.419	
127.600	-14.430	
127.700	-10.603	
127.800	-13.741	
127.900	-30.923	
128.000	-7.081	
128.100	-16.018	
128.200	-17.644	
128.300	-8.685	
128.400	-12.979	
128.500	-7.313	
128.600	-26.045	
128.700	-7.421	
128.800	-11.420	
128.900	-11.513	
129.000	-12.155	
129.100	-22.432	
129.200	-10.622	
129.300	-16.872	
129.400	-13.369	
129.500	-16.306	
129.600	-10.853	
129.700	-21.861	
129.800	-2.969	
129.900	-18.262	
130.000	-21.578	
130.100	-25.804	
130.200	-9.084	
130.300	-22.712	
130.400	-6.275	
130.500	-22.078	
130.600	-18.539	
130.700	-1.758	
130.800	-14.196	
130.900	-2.840	
131.000	-8.926	
131.100	-16.923	
131.200	-15.139	
131.300	-22.989	
131.400	-8.083	
131.500	-13.194	
131.600	-5.215	
131.700	-20.785	
131.800	-13.372	
131.900	-13.927	
132.000	-25.171	
132.100	-23.516	
132.200	-13.735	
132.300	2.763	
132.400	-16.882	
132.500	-9.970	
132.600	-4.603	
132.700	-32.215	
132.800	-17.567	
132.900	-10.041	
133.000	-8.760	
133.100	-16.082	
133.200	-24.009	
133.300	-12.327	
133.400	-19.638	
133.500	-20.212	
133.600	-8.720	
133.700	-11.270	
133.800	-9.322	
133.900	-9.048	
134.000	-17.007	
134.100	-16.244	
134.200	-3.524	
134.300	-0.229	
134.400	-13.622	
134.500	-35.237	
134.600	-5.614	
134.700	-12.701	
134.800	-32.445	
134.900	-6.473	
135.000	-14.226	
135.100	-20.402	
135.200	-12.618	
135.300	-7.530	
135.400	-13.108	
135.500	-16.464	
135.600	-9.144	
135.700	-16.121	
135.800	-20.387	
135.900	-27.952	
136.000	-16.004	
136.100	-12.898	
136.200	-15.577	
136.300	-23.880	
136.400	-3.229	
136.500	-12.501	
136.600	-6.578	
136.700	-13.861	
136.800	-19.231	
136.900	-21.616	
137.000	-15.746	
137.100	-19.100	
137.200	-14.892	
137.300	-13.474	
137.400	-17.313	
137.500	4.101	
137.600	-7.575	
137.700	-15.329	
137.800	-4.019	
137.900	-18.025	
138.000	-16.476	
138.100	-14.652	
138.200	-19.372	
138.300	-2.646	
138.400	-8.146	
138.500	-13.845	
138.600	-2.816	
138.700	-20.319	
138.800	-14.961	
138.900	-14.476	
139.000	-18.781	
139.100	-13.233	
139.200	-21.854	
139.300	-9.261	
139.400	-0.897	
139.500	-8.019	
139.600	-12.220	
139.700	-12.095	
139.800	-9.062	
139.900	-5.941	
140.000	-11.622	
140.100	-22.392	
140.200	-4.277	
140.300	-29.030	
140.400	-7.831	
140.500	-10.468	
140.600	-17.874	
140.700	-4.087	
140.800	-18.630	
140.900	-6.320	
141.000	-7.846	
141.100	-16.835	
141.200	-12.461	
141.300	-20.764	
141.400	-12.220	
141.500	-4.575	
141.600	-13.640	
141.700	-9.943	
141.800	-36.842	
141.900	-4.070	
142.000	-16.940	
142.100	-14.323	
142.200	-4.635	
142.300	-7.488	
142.400	-8.362	
142.500	-9.089	
142.600	-3.264	
142.700	-25.105	
142.800	0.569	
142.900	-12.761	
143.000	-7.172	
143.100	-16.779	
143.200	-8.978	
143.300	-18.572	
143.400	-29.729	
143.500	-18.787	
143.600	-20.378	
143.700	-1.643	
143.800	-17.616	
143.900	-7.704	
144.000	0.937	
144.100	-18.712	
144.200	4.720	
144.300	-19.053	
144.400	-19.774	
144.500	-9.827	
144.600	-4.092	
144.700	-26.251	
144.800	-14.998	
144.900	-13.203	
145.000	-13.997	
145.100	-6.331	
145.200	-13.550	
145.300	-20.223	
145.400	-5.037	
145.500	-18.814	
145.600	-12.172	
145.700	-8.301	
145.800	-11.846	
145.900	-1.270	
146.000	-2.144	
146.100	-7.811	
146.200	-15.800	
146.300	-15.509	
146.400	-11.637	
146.500	-7.980	
146.600	-7.595	
146.700	-20.213	
146.800	-10.414	
146.900	-10.687	
147.000	-4.236	
147.100	-22.957	
147.200	0.907	
147.300	-7.488	
147.400	-7.480	
147.500	-19.619	
147.600	-10.714	
147.700	-15.960	
147.800	-5.118	
147.900	-12.923	
148.000	-10.376	
148.100	5.251	
148.200	-19.205	
148.300	-16.356	
148.400	-21.337	
148.500	-6.441	
148.600	-8.263	
148.700	-0.050	
148.800	-8.617	
148.900	-18.561	
149.000	-12.343	
149.100	-7.788	
149.200	-17.760	
149.300	-10.841	
149.400	-0.312	
149.500	1.373	
149.600	-6.864	
149.700	-12.052	
149.800	-11.422	
149.900	-14.806	
150.000	-0.383	
150.100	-9.604	
150.200	-24.821	
150.300	1.848	
150.400	-8.959	
150.500	-6.533	
150.600	-12.587	
150.700	-27.630	
150.800	-3.118	
150.900	-8.563	
151.000	-11.566	
151.100	-2.619	
151.200	-6.020	
151.300	-6.325	
151.400	-14.061	
151.500	-7.661	
151.600	-1.178	
151.700	-22.631	
151.800	-17.289	
151.900	-10.225	
152.000	-10.384	
152.100	-10.740	
152.200	2.603	
152.300	-12.368	
152.400	-22.848	
152.500	-3.954	
152.600	-12.870	
152.700	-16.560	
152.800	1.127	
152.900	-12.379	
153.000	-12.417	
153.100	-1.905	
153.200	-6.175	
153.300	-10.515	
153.400	4.685	
153.500	-15.158	
153.600	-13.432	
153.700	-4.769	
153.800	-13.666	
153.900	-16.252	
154.000	-11.115	
154.100	3.264	
154.200	-4.815	
154.300	-10.800	
154.400	-12.093	
154.500	-24.587	
154.600	7.170	
154.700	-15.997	
154.800	-19.423	
154.900	-14.957	
155.000	8.913	
155.100	-11.683	
155.200	-12.495	
155.300	-0.936	
155.400	-14.922	
155.500	-22.077	
155.600	-0.976	
155.700	-4.509	
155.800	-11.946	
155.900	-10.930	
156.000	-6.052	
156.100	-6.937	
156.200	-13.894	
156.300	-15.491	
156.400	-6.631	
156.500	-7.659	
156.600	-20.678	
156.700	-10.100	
156.800	-5.171	
156.900	-7.800	
157.000	-23.115	
157.100	-24.083	
157.200	-11.430	
157.300	-2.155	
157.400	-4.781	
157.500	3.922	
157.600	0.612	
157.700	-0.883	
157.800	-16.791	
157.900	-22.311	
158.000	-16.002	
158.100	-1.625	
158.200	-9.952	
158.300	-12.184	
158.400	-16.905	
158.500	-5.977	
158.600	-14.624	
158.700	-9.709	
158.800	-3.761	
158.900	-8.971	
159.000	-7.214	
159.100	-18.444	
159.200	-11.172	
159.300	-10.458	
159.400	-6.105	
159.500	-7.170	
159.600	-21.377	
159.700	-11.708	
159.800	-10.985	
159.900	6.023	
160.000	-0.690	
160.100	-9.387	
160.200	-2.868	
160.300	-8.056	
160.400	-12.466	
160.500	-27.888	
160.600	10.779	
160.700	-6.580	
160.800	-15.806	
160.900	-10.256	
161.000	-6.412	
161.100	-1.503	
161.200	-32.581	
161.300	-14.498	
161.400	-12.256	
161.500	-22.913	
161.600	-14.188	
161.700	-1.007	
161.800	-21.975	
161.900	-7.789	
162.000	-0.073	
162.100	6.039	
162.200	-18.184	
162.300	-17.246	
162.400	-0.816	
162.500	-20.629	
162.600	-14.753	
162.700	-6.417	
162.800	-7.697	
162.900	-20.865	
163.000	-2.860	
163.100	-2.628	
163.200	-14.411	
163.300	-8.316	
163.400	3.445	
163.500	-7.355	
163.600	-11.261	
163.700	-8.670	
163.800	-19.397	
163.900	-6.979	
164.000	7.114	
164.100	-11.052	
164.200	-15.246	
164.300	-8.018	
164.400	-4.130	
164.500	1.513	
164.600	-9.555	
164.700	-8.252	
164.800	-8.890	
164.900	-14.611	
165.000	-22.742	
165.100	-8.031	
165.200	-14.516	
165.300	-9.158	
165.400	-11.531	
165.500	-9.136	
165.600	21.291	
165.700	-15.094	
165.800	-11.252	
165.900	-3.389	
166.000	-19.369	
166.100	-15.660	
166.200	-3.177	
166.300	-7.218	
166.400	-13.025	
166.500	-10.943	
166.600	-27.804	
166.700	-3.774	
166.800	-7.119	
166.900	-14.193	
167.000	-16.305	
167.100	-10.370	
167.200	-9.260	
167.300	-2.929	
167.400	-8.868	
167.500	-1.385	
167.600	-8.212	
167.700	-6.232	
167.800	1.780	
167.900	-8.235	
168.000	-6.694	
168.100	-17.824	
168.200	-24.843	
168.300	-4.261	
168.400	-14.764	
168.500	-5.407	
168.600	-4.767	
168.700	-18.768	
168.800	-16.252	
168.900	-7.674	
169.000	-9.538	
169.100	-4.185	
169.200	-16.540	
169.300	-14.136	
169.400	-1.038	
169.500	-5.790	
169.600	-7.963	
169.700	-5.654	
169.800	3.626	
169.900	-15.267	
170.000	-8.551	
170.100	-8.332	
170.200	5.322	
170.300	0.835	
170.400	-13.021	
170.500	-4.699	
170.600	-5.447	
170.700	-19.393	
170.800	-7.094	
170.900	-10.410	
171.000	-10.306	
171.100	-27.788	
171.200	-3.195	
171.300	2.208	
171.400	-5.157	
171.500	2.951	
171.600	-19.973	
171.700	-7.185	
171.800	-14.004	
171.900	-13.779	
172.000	-1.062	
172.100	-12.124	
172.200	-5.548	
172.300	-5.386	
172.400	-20.364	
172.500	-0.672	
172.600	-10.946	
172.700	-22.072	
172.800	-15.073	
172.900	-19.837	
173.000	10.886	
173.100	0.251	
173.200	-1.418	
173.300	-16.022	
173.400	-3.546	
173.500	-4.430	
173.600	-12.678	
173.700	2.210	
173.800	-5.188	
173.900	-7.424	
174.000	-1.229	
174.100	-28.792	
174.200	0.866	
174.300	0.463	
174.400	-2.229	
174.500	-10.494	
174.600	-18.342	
174.700	-18.306	
174.800	-0.780	
174.900	-10.364	
175.000	-2.655	
175.100	-1.527	
175.200	-12.989	
175.300	-19.670	
175.400	-12.934	
175.500	6.680	
175.600	-12.529	
175.700	-13.717	
175.800	-7.368	
175.900	2.521	
176.000	-6.315	
176.100	-20.313	
176.200	12.402	
176.300	-8.641	
176.400	-0.385	
176.500	-13.505	
176.600	-3.160	
176.700	2.952	
176.800	-8.927	
176.900	-17.010	
177.000	-4.581	
177.100	0.315	
177.200	-8.297	
177.300	-7.879	
177.400	-5.717	
177.500	-5.790	
177.600	-2.453	
177.700	-24.723	
177.800	-9.375	
177.900	-5.441	
178.000	-2.986	
178.100	-2.874	
178.200	-2.548	
178.300	4.362	
178.400	-1.419	
178.500	-14.790	
178.600	-13.633	
178.700	3.702	
178.800	1.612	
178.900	-13.691	
179.000	-4.245	
179.100	-9.508	
179.200	7.253	
179.300	-11.493	
179.400	-10.263	
179.500	-10.440	
179.600	-16.994	
179.700	-15.134	
179.800	-9.325	
179.900	-4.581	
180.000	-13.783	
180.100	-10.072	
180.200	9.202	
180.300	30.674	
180.400	10.879	
180.500	20.822	
180.600	20.990	
180.700	33.595	
180.800	39.844	
180.900	33.594	
181.000	24.334	
181.100	39.463	
181.200	26.251	
181.300	35.502	
181.400	37.911	
181.500	51.163	
181.600	36.323	
181.700	30.504	
181.800	32.063	
181.900	32.020	
182.000	39.733	
182.100	40.325	
182.200	40.285	
182.300	23.847	
182.400	45.437	
182.500	39.300	
182.600	49.673	
182.700	43.559	
182.800	28.477	
182.900	34.396	
183.000	35.731	
183.100	16.629	
183.200	25.325	
183.300	27.635	
183.400	29.291	
183.500	37.732	
183.600	37.599	
183.700	31.599	
183.800	18.398	
183.900	13.337	
184.000	31.350	
184.100	47.332	
184.200	4.471	
184.300	23.803	
184.400	18.590	
184.500	18.192	
184.600	16.289	
184.700	19.747	
184.800	42.167	
184.900	17.623	
185.000	23.664	
185.100	55.129	
185.200	23.891	
185.300	34.351	
185.400	40.728	
185.500	30.336	
185.600	25.449	
185.700	20.152	
185.800	23.421	
185.900	32.461	
186.000	42.609	
186.100	34.553	
186.200	28.729	
186.300	30.785	
186.400	32.740	
186.500	33.873	
186.600	34.617	
186.700	30.515	
186.800	35.602	
186.900	42.179	
187.000	33.577	
187.100	36.624	
187.200	20.128	
187.300	35.130	
187.400	37.370	
187.500	22.055	
187.600	43.091	
187.700	35.858	
187.800	35.767	
187.900	38.234	
188.000	40.517	
188.100	41.724	
188.200	31.583	
188.300	44.841	
188.400	36.234	
188.500	53.424	
188.600	31.398	
188.700	32.256	
188.800	43.903	
188.900	47.674	
189.000	25.139	
189.100	40.352	
189.200	29.542	
189.300	54.725	
189.400	35.461	
189.500	40.112	
189.600	41.198	
189.700	42.011	
189.800	48.299	
189.900	38.662	
190.000	38.720	
190.100	44.795	
190.200	55.564	
190.300	31.768	
190.400	38.644	
190.500	37.680	
190.600	51.735	
190.700	43.649	
190.800	48.361	
190.900	57.992	
191.000	53.422	
191.100	50.304	
191.200	57.962	
191.300	36.184	
191.400	44.298	
191.500	43.010	
191.600	43.127	
191.700	53.037	
191.800	50.130	
191.900	58.174	
192.000	44.259	
192.100	52.876	
192.200	42.485	
192.300	55.266	
192.400	52.996	
192.500	27.810	
192.600	51.923	
192.700	41.727	
192.800	63.297	
192.900	39.394	
193.000	38.426	
193.100	53.810	
193.200	53.490	
193.300	47.574	
193.400	59.457	
193.500	55.500	
193.600	42.717	
193.700	62.227	
193.800	62.368	
193.900	48.515	
194.000	46.245	
194.100	62.632	
194.200	53.217	
194.300	48.882	
194.400	69.212	
194.500	55.230	
194.600	49.236	
194.700	47.042	
194.800	60.841	
194.900	48.496	
195.000	44.653	
195.100	58.785	
195.200	53.492	
195.300	55.255	
195.400	60.250	
195.500	44.044	
195.600	53.870	
195.700	49.255	
195.800	61.714	
195.900	42.629	
196.000	52.015	
196.100	45.196	
196.200	61.069	
196.300	46.661	
196.400	32.045	
196.500	61.968	
196.600	58.713	
196.700	57.812	
196.800	37.834	
196.900	48.146	
197.000	42.928	
197.100	57.307	
197.200	49.690	
197.300	47.666	
197.400	54.872	
197.500	55.428	
197.600	63.757	
197.700	50.210	
197.800	48.495	
197.900	43.168	
198.000	51.211	
198.100	52.330	
198.200	43.406	
198.300	54.825	
198.400	58.829	
198.500	51.028	
198.600	44.384	
198.700	51.805	
198.800	58.814	
198.900	48.967	
199.000	49.365	
199.100	64.660	
199.200	61.337	
199.300	47.493	
199.400	57.282	
199.500	49.374	
199.600	59.018	
199.700	55.178	
199.800	43.586	
199.900	36.326	
200.000	47.476	
200.100	54.786	
200.200	57.922	
200.300	48.828	
200.400	46.301	
200.500	48.733	
200.600	45.659	
200.700	45.496	
200.800	51.903	
200.900	45.253	
201.000	52.871	
201.100	51.731	
201.200	50.146	
201.300	52.698	
201.400	51.861	
201.500	55.016	
201.600	35.408	
201.700	43.942	
201.800	41.322	
201.900	45.065	
202.000	67.005	
202.100	39.891	
202.200	61.701	
202.300	38.502	
202.400	58.962	
202.500	48.885	
202.600	46.070	
202.700	56.759	
202.800	45.348	
202.900	52.038	
203.000	44.969	
203.100	52.025	
203.200	48.920	
203.300	44.271	
203.400	56.781	
203.500	57.184	
203.600	46.296	
203.700	43.894	
203.800	37.240	
203.900	63.455	
204.000	54.529	
204.100	49.495	
204.200	48.014	
204.300	47.010	
204.400	55.664	
204.500	58.986	
204.600	57.262	
204.700	34.314	
204.800	41.522	
204.900	45.425	
205.000	46.971	
205.100	58.733	
205.200	46.395	
205.300	51.591	
205.400	39.979	
205.500	47.582	
205.600	60.063	
205.700	48.744	
205.800	47.677	
205.900	47.685	
206.000	50.067	
206.100	42.838	
206.200	45.107	
206.300	48.200	
206.400	49.927	
206.500	39.681	
206.600	53.711	
206.700	48.609	
206.800	51.472	
206.900	33.710	
207.000	61.424	
207.100	28.005	
207.200	55.251	
207.300	63.797	
207.400	54.083	
207.500	49.474	
207.600	51.532	
207.700	55.570	
207.800	43.745	
207.900	41.469	
208.000	47.343	
208.100	40.226	
208.200	50.163	
208.300	45.146	
208.400	59.563	
208.500	45.249	
208.600	50.250	
208.700	46.539	
208.800	44.716	
208.900	41.977	
209.000	30.286	
209.100	46.856	
209.200	46.809	
209.300	42.352	
209.400	47.222	
209.500	45.539	
209.600	45.849	
209.700	58.946	
209.800	50.809	
209.900	46.340	
210.000	45.219	
210.100	47.152	
210.200	45.023	
210.300	42.394	
210.400	49.151	
210.500	56.120	
210.600	56.253	
210.700	42.401	
210.800	35.432	
210.900	54.365	
211.000	42.024	
211.100	53.251	
211.200	59.984	
211.300	56.340	
211.400	57.577	
211.500	50.687	
211.600	55.742	
211.700	48.127	
211.800	30.588	
211.900	47.261	
212.000	53.517	
212.100	51.112	
212.200	45.425	
212.300	44.673	
212.400	49.139	
212.500	49.131	
212.600	33.013	
212.700	56.277	
212.800	48.953	
212.900	46.273	
213.000	54.834	
213.100	48.636	
213.200	34.074	
213.300	35.760	
213.400	59.761	
213.500	56.906	
213.600	40.018	
213.700	50.249	
213.800	40.579	
213.900	46.431	
214.000	34.800	
214.100	50.835	
214.200	42.077	
214.300	47.072	
214.400	55.700	
214.500	45.079	
214.600	49.540	
214.700	53.366	
214.800	47.619	
214.900	44.087	
215.000	50.187	
215.100	46.115	
215.200	34.526	
215.300	50.270	
215.400	44.070	
215.500	36.975	
215.600	55.801	
215.700	49.805	
215.800	38.417	
215.900	48.029	
216.000	57.816	
216.100	49.275	
216.200	42.111	
216.300	51.082	
216.400	53.625	
216.500	30.661	
216.600	48.181	
216.700	57.325	
216.800	45.766	
216.900	61.178	
217.000	64.465	
217.100	43.796	
217.200	33.177	
217.300	51.718	
217.400	48.403	
217.500	46.432	
217.600	57.115	
217.700	44.398	
217.800	43.293	
217.900	52.175	
218.000	47.126	
218.100	39.032	
218.200	43.608	
218.300	52.729	
218.400	51.172	
218.500	47.689	
218.600	50.637	
218.700	47.177	
218.800	39.101	
218.900	52.236	
219.000	57.554	
219.100	46.063	
219.200	52.858	
219.300	54.076	
219.400	57.066	
219.500	50.628	
219.600	50.710	
219.700	49.394	
219.800	37.606	
219.900	43.208	
220.000	38.276	
220.100	47.369	
220.200	35.995	
220.300	47.191	
220.400	54.890	
220.500	53.230	
220.600	64.368	
220.700	47.722	
220.800	50.975	
220.900	49.940	
221.000	50.527	
221.100	42.917	
221.200	51.466	
221.300	45.980	
221.400	51.109	
221.500	52.956	
221.600	37.216	
221.700	56.761	
221.800	45.157	
221.900	39.275	
222.000	37.662	
222.100	42.262	
222.200	50.550	
222.300	35.067	
222.400	49.272	
222.500	51.638	
222.600	53.070	
222.700	60.238	
222.800	45.407	
222.900	51.452	
223.000	46.665	
223.100	39.827	
223.200	48.214	
223.300	48.365	
223.400	48.874	
223.500	46.574	
223.600	43.159	
223.700	42.595	
223.800	66.886	
223.900	39.034	
224.000	56.315	
224.100	43.946	
224.200	45.441	
224.300	47.397	
224.400	49.874	
224.500	37.214	
224.600	50.603	
224.700	26.505	
224.800	37.206	
224.900	43.059	
225.000	50.617	
225.100	54.319	
225.200	37.033	
225.300	45.746	
225.400	33.850	
225.500	53.875	
225.600	54.648	
225.700	45.014	
225.800	43.343	
225.900	52.802	
226.000	33.359	
226.100	41.225	
226.200	57.385	
226.300	47.454	
226.400	47.643	
226.500	64.951	
226.600	35.670	
226.700	51.612	
226.800	50.492	
226.900	37.624	
227.000	41.912	
227.100	57.489	
227.200	44.409	
227.300	42.776	
227.400	55.175	
227.500	47.942	
227.600	37.437	
227.700	57.137	
227.800	41.504	
227.900	46.808	
228.000	49.181	
228.100	44.745	
228.200	43.119	
228.300	55.754	
228.400	58.632	
228.500	38.846	
228.600	44.532	
228.700	52.017	
228.800	38.691	
228.900	43.502	
229.000	56.001	
229.100	55.157	
229.200	38.002	
229.300	48.951	
229.400	45.485	
229.500	48.378	
229.600	38.668	
229.700	51.172	
229.800	49.022	
229.900	45.575	
230.000	45.708	
230.100	39.592	
230.200	49.374	
230.300	54.251	
230.400	29.072	
230.500	58.876	
230.600	50.276	
230.700	56.802	
230.800	23.071	
230.900	49.376	
231.000	57.776	
231.100	48.111	
231.200	44.056	
231.300	44.784	
231.400	46.164	
231.500	43.182	
231.600	40.942	
231.700	45.089	
231.800	47.139	
231.900	55.184	
232.000	45.447	
232.100	49.537	
232.200	35.900	
232.300	49.207	
232.400	45.996	
232.500	45.616	
232.600	54.112	
232.700	46.061	
232.800	54.400	
232.900	43.732	
233.000	53.625	
233.100	55.359	
233.200	56.740	
233.300	52.587	
233.400	39.803	
233.500	54.230	
233.600	49.200	
233.700	44.728	
233.800	50.369	
233.900	49.631	
234.000	53.571	
234.100	40.882	
234.200	49.529	
234.300	61.741	
234.400	43.035	
234.500	46.506	
234.600	43.004	
234.700	46.706	
234.800	46.237	
234.900	55.829	
235.000	41.326	
235.100	54.339	
235.200	39.505	
235.300	55.228	
235.400	56.310	
235.500	50.583	
235.600	52.291	
235.700	46.736	
235.800	47.199	
235.900	33.065	
236.000	59.292	
236.100	47.964	
236.200	54.020	
236.300	52.099	
236.400	34.356	
236.500	51.779	
236.600	33.750	
236.700	51.923	
236.800	46.112	
236.900	46.282	
237.000	59.346	
237.100	51.140	
237.200	50.949	
237.300	39.996	
237.400	54.508	
237.500	50.348	
237.600	46.075	
237.700	55.212	
237.800	53.335	
237.900	36.368	
238.000	47.492	
238.100	54.368	
238.200	44.032	
238.300	39.894	
238.400	40.491	
238.500	57.907	
238.600	39.281	
238.700	52.395	
238.800	54.129	
238.900	51.045	
239.000	53.592	
239.100	54.524	
239.200	49.815	
239.300	32.996	
239.400	51.486	
239.500	54.409	
239.600	42.868	
239.700	56.569	
239.800	44.093	
239.900	55.776	
240.000	41.848	
240.100	53.301	
240.200	46.310	
240.300	43.840	
240.400	44.039	
240.500	22.814	
240.600	24.415	
240.700	5.136	
240.800	39.337	
240.900	12.198	
241.000	15.997	
241.100	20.304	
241.200	-3.526	
241.300	-11.444	
241.400	-2.705	
241.500	-3.039	
241.600	-10.591	
241.700	-18.890	
241.800	-13.997	
241.900	-20.799	
242.000	-20.132	
242.100	-24.885	
242.200	-15.378	
242.300	-38.453	
242.400	-37.185	
242.500	-29.838	
242.600	-29.499	
242.700	-43.071	
242.800	-41.954	
242.900	-31.994	
243.000	-29.496	
243.100	-39.806	
243.200	-35.900	
243.300	-40.045	
243.400	-37.662	
243.500	-49.406	
243.600	-37.478	
243.700	-37.136	
243.800	-37.021	
243.900	-33.319	
244.000	-45.292	
244.100	-28.254	
244.200	-45.902	
244.300	-54.590	
244.400	-35.621	
244.500	-41.668	
244.600	-39.616	
244.700	-31.733	
244.800	-39.168	
244.900	-37.770	
245.000	-39.040	
245.100	-32.379	
245.200	-24.317	
245.300	-37.717	
245.400	-22.631	
245.500	-37.526	
245.600	-29.960	
245.700	-28.673	
245.800	-33.888	
245.900	-29.943	
246.000	-39.705	
246.100	-30.923	
246.200	-27.903	
246.300	-26.135	
246.400	-35.026	
246.500	-18.284	
246.600	-31.859	
246.700	-33.740	
246.800	-37.826	
246.900	-30.663	
247.000	-36.572	
247.100	-30.319	
247.200	-23.537	
247.300	-39.005	
247.400	-36.116	
247.500	-39.741	
247.600	-38.596	
247.700	-32.502	
247.800	-47.131	
247.900	-21.873	
248.000	-33.807	
248.100	-30.194	
248.200	-30.877	
248.300	-35.108	
248.400	-29.593	
248.500	-19.844	
248.600	-24.966	
248.700	-37.472	
248.800	-31.058	
248.900	-27.223	
249.000	-32.288	
249.100	-31.573	
249.200	-42.816	
249.300	-24.737	
249.400	-50.527	
249.500	-25.439	
249.600	-28.973	
249.700	-32.631	
249.800	-24.128	
249.900	-31.577	
250.000	-17.530	
250.100	-14.673	
250.200	-18.479	
250.300	-35.906	
250.400	-35.308	
250.500	-44.438	
250.600	-19.680	
250.700	-21.720	
250.800	-44.379	
250.900	-29.040	
251.000	-32.977	
251.100	-31.700	
251.200	-27.216	
251.300	-28.614	
251.400	-20.756	
251.500	-45.501	
251.600	-27.826	
251.700	-25.806	
251.800	-19.367	
251.900	-44.526	
252.000	-18.109	
252.100	-12.885	
252.200	-24.967	
252.300	-40.869	
252.400	-10.103	
252.500	-34.249	
252.600	-19.344	
252.700	-34.556	
252.800	-31.474	
252.900	-13.910	
253.000	-36.448	
253.100	-37.481	
253.200	-5.986	
253.300	-27.898	
253.400	-29.739	
253.500	-28.749	
253.600	-22.091	
253.700	-33.947	
253.800	-20.690	
253.900	-21.180	
254.000	-25.294	
254.100	-10.050	
254.200	-28.099	
254.300	-29.105	
254.400	-19.215	
254.500	-42.956	
254.600	-22.964	
254.700	-14.045	
254.800	-16.454	
254.900	-20.663	
255.000	-13.947	
255.100	-30.614	
255.200	-44.309	
255.300	-21.468	
255.400	-20.232	
255.500	-33.772	
255.600	-31.182	
255.700	-23.544	
255.800	-23.246	
255.900	-31.948	
256.000	-32.928	
256.100	-23.004	
256.200	-23.084	
256.300	-16.975	
256.400	-35.693	
256.500	-37.971	
256.600	-20.804	
256.700	-14.141	
256.800	-27.130	
256.900	-26.681	
257.000	-31.967	
257.100	-16.483	
257.200	-18.614	
257.300	-25.373	
257.400	-37.025	
257.500	-27.014	
257.600	-33.933	
257.700	-21.026	
257.800	-34.496	
257.900	-26.490	
258.000	-29.212	
258.100	-24.039	
258.200	-27.963	
258.300	-34.000	
258.400	-16.154	
258.500	-20.495	
258.600	-10.801	
258.700	-30.150	
258.800	-25.829	
258.900	-40.034	
259.000	-20.756	
259.100	-31.458	
259.200	-19.500	
259.300	-21.871	
259.400	-38.434	
259.500	-22.054	
259.600	-37.334	
259.700	-30.277	
259.800	-24.306	
259.900	-9.021	
260.000	-17.520	
260.100	-23.183	
260.200	-11.786	
260.300	-21.313	
260.400	-18.867	
260.500	-33.862	
260.600	-21.610	
260.700	-26.558	
260.800	-22.832	
260.900	-30.524	
261.000	-41.905	
261.100	-20.385	
261.200	-18.499	
261.300	-47.061	
261.400	-13.573	
261.500	-7.884	
261.600	-25.479	
261.700	-33.411	
261.800	-24.270	
261.900	-24.540	
262.000	-15.045	
262.100	-33.297	
262.200	-16.890	
262.300	-18.227	
262.400	-32.148	
262.500	-20.644	
262.600	-8.739	
262.700	-31.106	
262.800	-27.356	
262.900	-23.413	
263.000	-23.229	
263.100	-11.438	
263.200	-21.093	
263.300	-17.691	
263.400	-19.763	
263.500	-24.350	
263.600	-11.199	
263.700	-20.384	
263.800	-19.401	
263.900	-21.389	
264.000	-33.537	
264.100	-25.157	
264.200	-20.856	
264.300	-31.801	
264.400	-18.701	
264.500	-23.563	
264.600	-5.896	
264.700	-25.007	
264.800	-13.668	
264.900	-26.041	
265.000	-13.955	
265.100	-26.120	
265.200	-32.274	
265.300	-22.298	
265.400	-20.193	
265.500	-5.189	
265.600	-28.286	
265.700	-24.898	
265.800	-9.376	
265.900	-13.995	
266.000	-16.276	
266.100	-26.972	
266.200	-41.065	
266.300	-27.759	
266.400	-4.877	
266.500	-19.099	
266.600	-26.523	
266.700	-27.098	
266.800	-10.513	
266.900	-3.298	
267.000	-28.706	
267.100	-15.235	
267.200	-19.690	
267.300	-25.790	
267.400	-25.271	
267.500	-14.143	
267.600	-28.133	
267.700	-19.235	
267.800	-13.631	
267.900	-17.558	
268.000	-9.478	
268.100	-19.973	
268.200	-21.492	
268.300	-23.494	
268.400	-13.994	
268.500	-26.619	
268.600	-17.989	
268.700	-25.960	
268.800	-6.501	
268.900	-34.914	
269.000	-29.162	
269.100	-15.513	
269.200	-14.151	
269.300	-24.031	
269.400	-10.740	
269.500	-12.881	
269.600	-18.350	
269.700	-27.436	
269.800	-28.845	
269.900	-19.203	
270.000	-26.043	
270.100	-18.798	
270.200	-7.263	
270.300	-35.143	
270.400	-31.558	
270.500	-14.605	
270.600	-25.194	
270.700	-6.720	
270.800	-23.976	
270.900	-30.991	
271.000	-13.713	
271.100	-13.280	
271.200	-26.827	
271.300	-13.792	
271.400	-12.272	
271.500	-12.786	
271.600	-7.129	
271.700	-38.845	
271.800	-20.058	
271.900	-10.707	
272.000	-23.288	
272.100	-36.199	
272.200	-12.036	
272.300	-21.563	
272.400	-35.845	
272.500	-12.830	
272.600	-16.450	
272.700	-23.600	
272.800	-18.499	
272.900	-14.795	
273.000	-13.919	
273.100	-30.546	
273.200	-20.172	
273.300	-38.509	
273.400	-16.005	
273.500	-13.181	
273.600	-11.007	
273.700	-20.862	
273.800	-15.720	
273.900	-15.736	
274.000	-22.908	
274.100	-18.971	
274.200	-11.297	
274.300	-23.793	
274.400	-14.351	
274.500	-4.353	
274.600	-15.981	
274.700	-21.603	
274.800	-14.011	
274.900	-21.118	
275.000	-17.823	
275.100	-7.566	
275.200	-24.475	
275.300	-6.057	
275.400	-27.190	
275.500	-27.250	
275.600	-26.155	
275.700	-9.365	
275.800	-16.778	
275.900	-14.850	
276.000	-17.674	
276.100	-25.539	
276.200	-29.885	
276.300	-20.973	
276.400	-10.979	
276.500	-27.292	
276.600	-27.394	
276.700	-9.496	
276.800	-17.422	
276.900	-35.460	
277.000	-25.347	
277.100	14.293	
277.200	-18.958	
277.300	-6.092	
277.400	-15.210	
277.500	-19.080	
277.600	-14.687	
277.700	-19.416	
277.800	-18.056	
277.900	-21.790	
278.000	-9.246	
278.100	-12.030	
278.200	-20.381	
278.300	-25.813	
278.400	-11.475	
278.500	-17.699	
278.600	-22.516	
278.700	-20.916	
278.800	-42.976	
278.900	-14.385	
279.000	-12.214	
279.100	-5.647	
279.200	-17.315	
279.300	-19.906	
279.400	-14.292	
279.500	-23.117	
279.600	-17.152	
279.700	-15.204	
279.800	-20.501	
279.900	-21.220	
280.000	-17.432	
280.100	-14.788	
280.200	-34.813	
280.300	-5.083	
280.400	-25.373	
280.500	-15.645	
280.600	-13.266	
280.700	-15.038	
280.800	-20.045	
280.900	-17.262	
281.000	-17.887	
281.100	-21.213	
281.200	-2.824	
281.300	-18.186	
281.400	-17.578	
281.500	-15.385	
281.600	-17.150	
281.700	-31.255	
281.800	-20.619	
281.900	-10.511	
282.000	-12.686	
282.100	-7.853	
282.200	-18.640	
282.300	-11.675	
282.400	-21.763	
282.500	-9.443	
282.600	-12.132	
282.700	-11.144	
282.800	-13.798	
282.900	-19.240	
283.000	-7.482	
283.100	-30.299	
283.200	-13.115	
283.300	-22.910	
283.400	-7.024	
283.500	-5.225	
283.600	-9.091	
283.700	-12.621	
283.800	-25.153	
283.900	-22.352	
284.000	-0.927	
284.100	-13.000	
284.200	-18.398	
284.300	-20.585	
284.400	-11.666	
284.500	-24.224	
284.600	-12.229	
284.700	-16.974	
284.800	-8.639	
284.900	-25.699	
285.000	-10.113	
285.100	-16.749	
285.200	-22.787	
285.300	-15.222	
285.400	-15.753	
285.500	-17.572	
285.600	-16.964	
285.700	-37.503	
285.800	-15.031	
285.900	-22.339	
286.000	-9.766	
286.100	-37.708	
286.200	-8.289	
286.300	-13.185	
286.400	-25.705	
286.500	-11.740	
286.600	-20.789	
286.700	-16.992	
286.800	-0.289	
286.900	-19.159	
287.000	-12.633	
287.100	-18.612	
287.200	-26.255	
287.300	-18.427	
287.400	-5.086	
287.500	-39.446	
287.600	-24.019	
287.700	-6.683	
287.800	-8.685	
287.900	-10.159	
288.000	-22.440	
288.100	-19.095	
288.200	-25.508	
288.300	-9.794	
288.400	-27.189	
288.500	-18.968	
288.600	-14.594	
288.700	-38.351	
288.800	-10.995	
288.900	-20.869	
289.000	-17.476	
289.100	-11.181	
289.200	-21.015	
289.300	4.949	
289.400	-20.167	
289.500	-16.690	
289.600	-8.830	
289.700	-25.608	
289.800	-4.338	
289.900	-21.690	
290.000	-25.464	
290.100	-2.185	
290.200	-18.502	
290.300	-24.840	
290.400	-6.644	
290.500	-15.918	
290.600	-8.440	
290.700	-31.909	
290.800	-6.812	
290.900	-28.114	
291.000	-32.137	
291.100	5.458	
291.200	-14.897	
291.300	-10.649	
291.400	-10.330	
291.500	-22.872	
291.600	-13.177	
291.700	-4.201	
291.800	-10.321	
291.900	-17.354	
292.000	-12.194	
292.100	-13.056	
292.200	-10.403	
292.300	-17.347	
292.400	-22.127	
292.500	-6.205	
292.600	-13.122	
292.700	-19.129	
292.800	-23.421	
292.900	-16.515	
293.000	-13.077	
293.100	-2.464	
293.200	-19.994	
293.300	-26.127	
293.400	-24.127	
293.500	-21.291	
293.600	-11.107	
293.700	-17.900	
293.800	-10.410	
293.900	-8.596	
294.000	-15.401	
294.100	-6.101	
294.200	-19.072	
294.300	-21.898	
294.400	-26.849	
294.500	-19.752	
294.600	-11.903	
294.700	-9.475	
294.800	-4.813	
294.900	-16.436	
295.000	-20.087	
295.100	3.175	
295.200	-16.596	
295.300	-35.363	
295.400	1.275	
295.500	-13.394	
295.600	-6.153	
295.700	-15.061	
295.800	-15.758	
295.900	-12.680	
296.000	-26.999	
296.100	1.238	
296.200	-9.529	
296.300	-22.425	
296.400	-16.812	
296.500	-14.012	
296.600	-12.113	
296.700	-13.469	
296.800	-10.637	
296.900	1.573	
297.000	-2.871	
297.100	-2.382	
297.200	-19.967	
297.300	-6.882	
297.400	-14.503	
297.500	-11.735	
297.600	-9.299	
297.700	-19.087	
297.800	-22.785	
297.900	-4.825	
298.000	-27.451	
298.100	-16.755	
298.200	-11.864	
298.300	-20.902	
298.400	-10.318	
298.500	-12.136	
298.600	-11.975	
298.700	-29.336	
298.800	-9.246	
298.900	-7.316	
299.000	-8.548	
299.100	-11.805	
299.200	-17.945	
299.300	-11.769	
299.400	-27.967	
299.500	-5.113	
299.600	-1.359	
299.700	-18.065	
299.800	-6.406	
299.900	-11.240	
300.000	-18.024	
300.100	-12.484	
300.200	-22.089	
300.300	-8.413	
300.400	-4.519	
300.500	-19.752	
300.600	-11.155	
300.700	-12.670	
300.800	-18.265	
300.900	-5.547	
301.000	-8.543	
301.100	-14.060	
301.200	-24.849	
301.300	-22.518	
301.400	-23.707	
301.500	-7.419	
301.600	-8.539	
301.700	-5.830	
301.800	-2.363	
301.900	-12.936	
302.000	-14.050	
302.100	-13.228	
302.200	-12.142	
302.300	-25.719	
302.400	-24.921	
302.500	-8.488	
302.600	-8.417	
302.700	-13.488	
302.800	-2.795	
302.900	-8.100	
303.000	-13.988	
303.100	-11.904	
303.200	-5.884	
303.300	-20.614	
303.400	-19.973	
303.500	-5.911	
303.600	-6.750	
303.700	-16.928	
303.800	-11.202	
303.900	-14.841	
304.000	-17.511	
304.100	-17.909	
304.200	-8.809	
304.300	-21.141	
304.400	-6.657	
304.500	-14.887	
304.600	-4.126	
304.700	-27.511	
304.800	2.565	
304.900	-16.172	
305.000	-3.120	
305.100	-10.704	
305.200	-5.159	
305.300	-6.681	
305.400	-6.304	
305.500	-13.601	
305.600	-16.572	
305.700	-8.162	
305.800	-18.551	
305.900	-19.291	
306.000	-8.140	
306.100	-22.682	
306.200	-0.256	
306.300	-7.628	
306.400	-16.227	
306.500	-14.692	
306.600	-18.753	
306.700	-22.471	
306.800	-6.216	
306.900	-11.298	
307.000	-15.539	
307.100	-20.296	
307.200	-20.494	
307.300	-8.031	
307.400	-28.559	
307.500	-12.875	
307.600	-5.083	
307.700	-10.407	
307.800	-22.887	
307.900	-12.301	
308.000	10.475	
308.100	-2.238	
308.200	-8.086	
308.300	-17.326	
308.400	-13.827	
308.500	1.156	
308.600	-7.238	
308.700	-9.938	
308.800	-13.289	
308.900	-2.675	
309.000	-18.852	
309.100	-2.771	
309.200	-17.276	
309.300	-7.048	
309.400	-19.154	
309.500	-15.524	
309.600	0.875	
309.700	-14.036	
309.800	-1.347	
309.900	-14.613	
310.000	-14.499	
310.100	7.070	
310.200	-17.972	
310.300	-23.177	
310.400	-16.997	
310.500	-7.976	
310.600	-9.531	
310.700	10.462	
310.800	-11.354	
310.900	-12.667	
311.000	-10.949	
311.100	-17.483	
311.200	-6.791	
311.300	-20.528	
311.400	-3.743	
311.500	-9.061	
311.600	-22.135	
311.700	-14.081	
311.800	-6.353	
311.900	-23.441	
312.000	-17.629	
312.100	-2.817	
312.200	-9.578	
312.300	-0.655	
312.400	-5.615	
312.500	-9.760	
312.600	-16.811	
312.700	-4.950	
312.800	-2.761	
312.900	-5.411	
313.000	-9.264	
313.100	-22.302	
313.200	-17.027	
313.300	-16.698	
313.400	-14.393	
313.500	-19.327	
313.600	-11.535	
313.700	-0.670	
313.800	-6.681	
313.900	-12.722	
314.000	1.719	
314.100	-18.532	
314.200	-23.248	
314.300	2.332	
314.400	-23.911	
314.500	-28.649	
314.600	-16.703	
314.700	-3.393	
314.800	3.291	
314.900	-2.977	
315.000	-8.079	
315.100	-17.098	
315.200	-11.917	
315.300	0.868	
315.400	-5.083	
315.500	-19.052	
315.600	-16.568	
315.700	-5.611	
315.800	-2.614	
315.900	-23.938	
316.000	-3.519	
316.100	-0.913	
316.200	-5.761	
316.300	-20.952	
316.400	-11.224	
316.500	-3.958	
316.600	-14.776	
316.700	-2.693	
316.800	-5.418	
316.900	-10.288	
317.000	-20.786	
317.100	2.958	
317.200	7.963	
317.300	-12.450	
317.400	-25.066	
317.500	-15.051	
317.600	-6.312	
317.700	-15.274	
317.800	-15.825	
317.900	0.174	
318.000	-8.283	
318.100	1.054	
318.200	-13.463	
318.300	-9.272	
318.400	-6.605	
318.500	-7.531	
318.600	-5.070	
318.700	-28.554	
318.800	-18.076	
318.900	-10.740	
319.000	-20.963	
319.100	-4.104	
319.200	-16.280	
319.300	-3.800	
319.400	-10.505	
319.500	5.720	
319.600	-14.540	
319.700	-16.277	
319.800	-1.255	
319.900	-7.815	
320.000	-17.073	
320.100	-28.908	
320.200	-9.410	
320.300	-14.314	
320.400	-12.897	
320.500	-15.658	
320.600	-11.345	
320.700	4.985	
320.800	-18.116	
320.900	-10.613	
321.000	-7.584	
321.100	3.978	
321.200	-20.383	
321.300	-10.061	
321.400	-17.281	
321.500	-17.761	
321.600	-5.089	
321.700	-12.408	
321.800	-13.948	
321.900	-11.351	
322.000	-12.623	
322.100	-13.452	
322.200	-8.235	
322.300	-3.601	
322.400	-5.528	
322.500	-1.795	
322.600	-18.773	
322.700	2.807	
322.800	-3.991	
322.900	-23.815	
323.000	-12.835	
323.100	-3.045	
323.200	-8.383	
323.300	-17.775	
323.400	-5.018	
323.500	-8.933	
323.600	-1.109	
323.700	-35.152	
323.800	-6.574	
323.900	-6.585	
324.000	3.208	
324.100	-8.732	
324.200	-25.609	
324.300	-7.040	
324.400	-10.575	
324.500	-9.991	
324.600	-6.547	
324.700	-8.142	
324.800	-8.228	
324.900	-4.895	
325.000	-10.997	
325.100	-0.671	
325.200	-10.242	
325.300	-16.581	
325.400	-9.740	
325.500	-23.395	
325.600	-6.377	
325.700	-5.989	
325.800	-9.485	
325.900	-15.119	
326.000	1.541	
326.100	-3.626	
326.200	-16.808	
326.300	-1.849	
326.400	-11.021	
326.500	-12.353	
326.600	-12.117	
326.700	-6.166	
326.800	-9.155	
326.900	-15.380	
327.000	-5.056	
327.100	-10.497	
327.200	-28.840	
327.300	-7.702	
327.400	-5.237	
327.500	-11.734	
327.600	-8.104	
327.700	-14.678	
327.800	-1.408	
327.900	-13.697	
328.000	-16.589	
328.100	-21.381	
328.200	7.322	
328.300	-4.552	
328.400	-17.911	
328.500	-5.595	
328.600	-14.629	
328.700	-6.033	
328.800	-11.891	
328.900	-5.485	
329.000	-8.235	
329.100	-13.362	
329.200	-5.249	
329.300	-18.555	
329.400	-12.444	
329.500	-13.011	
329.600	14.442	
329.700	-5.190	
329.800	-16.601	
329.900	-13.241	
330.000	-13.927	
330.100	-9.007	
330.200	-6.059	
330.300	9.366	
330.400	16.005	
330.500	32.623	
330.600	24.868	
330.700	23.158	
330.800	34.412	
330.900	35.973	
331.000	36.849	
331.100	41.292	
331.200	33.020	
331.300	39.709	
331.400	18.134	
331.500	41.421	
331.600	36.676	
331.700	42.781	
331.800	30.182	
331.900	38.302	
332.000	36.280	
332.100	22.716	
332.200	35.660	
332.300	36.459	
332.400	23.335	
332.500	38.419	
332.600	43.330	
332.700	34.225	
332.800	29.120	
332.900	30.092	
333.000	38.289	
333.100	28.993	
333.200	34.128	
333.300	36.257	
333.400	35.541	
333.500	33.941	
333.600	29.869	
333.700	33.764	
333.800	29.035	
333.900	29.084	
334.000	27.273	
334.100	27.610	
334.200	32.845	
334.300	32.357	
334.400	19.765	
334.500	17.342	
334.600	40.071	
334.700	31.475	
334.800	17.798	
334.900	22.803	
335.000	22.990	
335.100	16.612	
335.200	23.391	
335.300	27.693	
335.400	25.796	
335.500	31.632	
335.600	26.634	
335.700	32.157	
335.800	21.406	
335.900	25.864	
336.000	37.620	
336.100	30.676	
336.200	40.400	
336.300	21.336	
336.400	28.187	
336.500	35.328	
336.600	43.434	
336.700	38.751	
336.800	26.523	
336.900	20.198	
337.000	33.039	
337.100	34.231	
337.200	29.612	
337.300	31.243	
337.400	35.808	
337.500	44.182	
337.600	42.156	
337.700	12.710	
337.800	40.969	
337.900	38.194	
338.000	50.639	
338.100	37.108	
338.200	22.953	
338.300	47.163	
338.400	46.300	
338.500	40.810	
338.600	35.456	
338.700	43.943	
338.800	40.279	
338.900	40.218	
339.000	30.994	
339.100	44.717	
339.200	50.598	
339.300	43.048	
339.400	31.022	
339.500	33.307	
339.600	36.845	
339.700	44.413	
339.800	44.702	
339.900	46.613	
340.000	51.644	
340.100	53.133	
340.200	50.426	
340.300	51.758	
340.400	32.274	
340.500	53.821	
340.600	49.161	
340.700	50.602	
340.800	51.816	
340.900	52.180	
341.000	50.064	
341.100	40.956	
341.200	61.706	
341.300	44.492	
341.400	46.635	
341.500	56.944	
341.600	42.955	
341.700	44.852	
341.800	43.026	
341.900	33.183	
342.000	59.967	
342.100	54.283	
342.200	59.309	
342.300	48.522	
342.400	39.198	
342.500	42.687	
342.600	45.487	
342.700	46.122	
342.800	54.072	
342.900	38.616	
343.000	68.681	
343.100	50.165	
343.200	50.556	
343.300	47.831	
343.400	55.612	
343.500	43.409	
343.600	55.796	
343.700	45.142	
343.800	49.284	
343.900	59.301	
344.000	57.905	
344.100	50.959	
344.200	50.648	
344.300	49.817	
344.400	55.987	
344.500	48.709	
344.600	46.587	
344.700	61.623	
344.800	51.371	
344.900	60.471	
345.000	54.180	
345.100	53.040	
345.200	49.279	
345.300	37.625	
345.400	54.291	
345.500	55.315	
345.600	63.053	
345.700	61.364	
345.800	47.127	
345.900	53.109	
346.000	62.727	
346.100	53.904	
346.200	60.401	
346.300	46.530	
346.400	57.958	
346.500	50.264	
346.600	48.356	
346.700	49.400	
346.800	64.026	
346.900	32.961	
347.000	62.077	
347.100	59.286	
347.200	56.590	
347.300	26.716	
347.400	60.652	
347.500	55.117	
347.600	47.614	
347.700	57.983	
347.800	59.025	
347.900	45.519	
348.000	51.956	
348.100	54.612	
348.200	56.493	
348.300	50.418	
348.400	55.685	
348.500	51.946	
348.600	52.207	
348.700	57.830	
348.800	45.002	
348.900	67.879	
349.000	53.739	
349.100	46.953	
349.200	50.771	
349.300	70.903	
349.400	47.321	
349.500	33.952	
349.600	59.600	
349.700	55.860	
349.800	49.867	
349.900	48.021	
350.000	43.070	
350.100	53.784	
350.200	61.731	
350.300	53.830	
350.400	41.643	
350.500	43.480	
350.600	54.525	
350.700	59.138	
350.800	48.663	
350.900	46.842	
351.000	46.186	
351.100	48.877	
351.200	53.347	
351.300	50.348	
351.400	56.619	
351.500	45.613	
351.600	52.043	
351.700	50.772	
351.800	47.287	
351.900	48.726	
352.000	55.386	
352.100	58.315	
352.200	62.495	
352.300	37.983	
352.400	60.678	
352.500	59.216	
352.600	50.495	
352.700	54.615	
352.800	42.367	
352.900	54.268	
353.000	56.032	
353.100	50.593	
353.200	53.701	
353.300	58.711	
353.400	53.508	
353.500	63.307	
353.600	55.567	
353.700	50.010	
353.800	55.446	
353.900	46.955	
354.000	55.212	
354.100	55.208	
354.200	47.732	
354.300	45.663	
354.400	52.022	
354.500	51.142	
354.600	50.826	
354.700	43.796	
354.800	70.420	
354.900	50.786	
355.000	56.163	
355.100	44.554	
355.200	56.385	
355.300	52.505	
355.400	49.367	
355.500	54.745	
355.600	50.162	
355.700	63.733	
355.800	55.469	
355.900	54.839	
356.000	53.044	
356.100	46.759	
356.200	40.547	
356.300	65.906	
356.400	55.381	
356.500	50.660	
356.600	48.423	
356.700	49.664	
356.800	56.570	
356.900	37.506	
357.000	49.707	
357.100	47.199	
357.200	44.183	
357.300	47.116	
357.400	45.819	
357.500	52.810	
357.600	60.740	
357.700	56.358	
357.800	54.496	
357.900	45.826	
358.000	32.636	
358.100	41.180	
358.200	53.484	
358.300	67.539	
358.400	53.630	
358.500	50.174	
358.600	48.298	
358.700	41.597	
358.800	53.248	
358.900	51.447	
359.000	49.558	
359.100	42.036	
359.200	51.256	
359.300	53.284	
359.400	41.949	
359.500	55.063	
359.600	55.217	
359.700	52.285	
359.800	72.529	
359.900	56.250	
360.000	33.755	
360.100	53.166	
360.200	45.941	
360.300	45.565	
360.400	46.725	
360.500	59.919	
360.600	54.000	
360.700	56.935	
360.800	54.219	
360.900	38.160	
361.000	59.514	
361.100	53.624	
361.200	38.631	
361.300	55.584	
361.400	54.418	
361.500	49.953	
361.600	39.049	
361.700	42.889	
361.800	40.820	
361.900	48.074	
362.000	51.701	
362.100	65.524	
362.200	54.014	
362.300	61.909	
362.400	59.000	
362.500	53.055	
362.600	44.458	
362.700	45.890	
362.800	52.677	
362.900	44.112	
363.000	48.368	
363.100	47.263	
363.200	51.895	
363.300	44.786	
363.400	54.010	
363.500	53.274	
363.600	52.318	
363.700	55.421	
363.800	40.109	
363.900	46.661	
364.000	46.313	
364.100	51.826	
364.200	45.839	
364.300	58.713	
364.400	52.099	
364.500	40.944	
364.600	45.726	
364.700	51.201	
364.800	50.713	
364.900	33.225	
365.000	52.482	
365.100	41.788	
365.200	52.579	
365.300	32.153	
365.400	56.639	
365.500	52.068	
365.600	45.917	
365.700	57.319	
365.800	37.750	
365.900	50.693	
366.000	53.756	
366.100	43.655	
366.200	41.545	
366.300	56.354	
366.400	55.791	
366.500	52.428	
366.600	51.249	
366.700	41.461	
366.800	62.628	
366.900	46.737	
367.000	48.972	
367.100	48.055	
367.200	56.044	
367.300	58.502	
367.400	53.715	
367.500	51.140	
367.600	53.974	
367.700	57.011	
367.800	57.058	
367.900	47.944	
368.000	60.130	
368.100	46.216	
368.200	57.826	
368.300	42.663	
368.400	56.721	
368.500	42.598	
368.600	46.725	
368.700	50.638	
368.800	53.477	
368.900	48.024	
369.000	57.096	
369.100	35.780	
369.200	56.479	
369.300	40.078	
369.400	43.188	
369.500	56.745	
369.600	41.463	
369.700	61.087	
369.800	39.791	
369.900	65.822	
370.000	43.455	
370.100	37.933	
370.200	62.096	
370.300	48.313	
370.400	52.306	
370.500	51.454	
370.600	51.247	
370.700	44.349	
370.800	46.983	
370.900	49.031	
371.000	54.329	
371.100	39.124	
371.200	45.374	
371.300	55.543	
371.400	56.270	
371.500	45.427	
371.600	57.863	
371.700	54.082	
371.800	56.628	
371.900	54.961	
372.000	50.462	
372.100	44.814	
372.200	48.420	
372.300	44.936	
372.400	52.712	
372.500	47.892	
372.600	49.230	
372.700	48.938	
372.800	51.192	
372.900	46.205	
373.000	53.874	
373.100	54.406	
373.200	56.504	
373.300	33.538	
373.400	53.065	
373.500	45.209	
373.600	53.943	
373.700	52.958	
373.800	42.229	
373.900	52.272	
374.000	50.425	
374.100	51.916	
374.200	49.601	
374.300	41.286	
374.400	50.402	
374.500	57.306	
374.600	42.552	
374.700	55.792	
374.800	52.355	
374.900	38.020	
375.000	50.908	
375.100	59.273	
375.200	36.974	
375.300	40.760	
375.400	54.506	
375.500	71.381	
375.600	53.786	
375.700	44.416	
375.800	53.671	
375.900	61.341	
376.000	66.703	
376.100	37.837	
376.200	53.605	
376.300	68.170	
376.400	48.675	
376.500	44.876	
376.600	44.431	
376.700	43.304	
376.800	48.447	
376.900	42.360	
377.000	50.928	
377.100	66.316	
377.200	35.398	
377.300	46.608	
377.400	53.716	
377.500	49.924	
377.600	56.632	
377.700	61.524	
377.800	51.958	
377.900	58.928	
378.000	54.071	
378.100	42.529	
378.200	44.138	
378.300	43.990	
378.400	50.800	
378.500	58.841	
378.600	53.944	
378.700	47.456	
378.800	52.195	
378.900	48.812	
379.000	45.476	
379.100	59.452	
379.200	44.331	
379.300	48.885	
379.400	43.412	
379.500	45.569	
379.600	45.047	
379.700	46.637	
379.800	47.587	
379.900	40.040	
380.000	51.901	
380.100	52.774	
380.200	40.521	
380.300	52.719	
380.400	39.079	
380.500	58.650	
380.600	49.578	
380.700	57.163	
380.800	60.786	
380.900	65.317	
381.000	51.815	
381.100	43.639	
381.200	48.581	
381.300	49.934	
381.400	58.322	
381.500	56.770	
381.600	51.422	
381.700	41.536	
381.800	52.446	
381.900	50.351	
382.000	57.580	
382.100	40.264	
382.200	46.182	
382.300	55.342	
382.400	45.728	
382.500	54.622	
382.600	46.056	
382.700	53.671	
382.800	39.373	
382.900	31.329	
383.000	56.527	
383.100	39.003	
383.200	46.134	
383.300	61.064	
383.400	47.360	
383.500	50.520	
383.600	54.463	
383.700	38.533	
383.800	55.410	
383.900	36.916	
384.000	41.069	
384.100	47.285	
384.200	50.262	
384.300	41.065	
384.400	60.487	
384.500	61.374	
384.600	52.151	
384.700	41.637	
384.800	49.787	
384.900	42.104	
385.000	52.511	
385.100	49.451	
385.200	49.495	
385.300	51.465	
385.400	58.876	
385.500	46.174	
385.600	52.615	
385.700	55.497	
385.800	52.090	
385.900	45.457	
386.000	40.654	
386.100	53.392	
386.200	43.506	
386.300	47.566	
386.400	48.302	
386.500	46.981	
386.600	45.647	
386.700	54.869	
386.800	34.183	
386.900	46.815	
387.000	56.032	
387.100	48.322	
387.200	45.168	
387.300	46.350	
387.400	36.091	
387.500	63.592	
387.600	47.116	
387.700	49.264	
387.800	42.461	
387.900	59.371	
388.000	48.876	
388.100	45.236	
388.200	47.041	
388.300	48.405	
388.400	46.461	
388.500	52.048	
388.600	42.649	
388.700	52.093	
388.800	36.652	
388.900	65.048	
389.000	44.127	
389.100	44.631	
389.200	40.013	
389.300	43.079	
389.400	52.000	
389.500	49.127	
389.600	28.483	
389.700	54.264	
389.800	49.010	
389.900	49.900	
390.000	36.762	
390.100	55.514	
390.200	39.213	
390.300	44.571	
390.400	28.547	
390.500	39.016	
390.600	28.915	
390.700	30.191	
390.800	18.160	
390.900	1.993	
391.000	19.026	
391.100	9.446	
391.200	21.339	
391.300	0.500	
391.400	4.211	
391.500	-26.262	
391.600	-4.282	
391.700	-20.198	
391.800	-13.701	
391.900	-19.045	
392.000	-22.986	
392.100	-24.811	
392.200	-35.854	
392.300	-37.756	
392.400	-21.453	
392.500	-28.200	
392.600	-33.566	
392.700	-37.201	
392.800	-29.688	
392.900	-33.070	
393.000	-33.292	
393.100	-35.177	
393.200	-42.699	
393.300	-33.317	
393.400	-37.456	
393.500	-38.175	
393.600	-25.261	
393.700	-51.403	
393.800	-44.945	
393.900	-44.566	
394.000	-34.907	
394.100	-40.351	
394.200	-42.180	
394.300	-37.674	
394.400	-39.330	
394.500	-38.629	
394.600	-36.174	
394.700	-43.507	
394.800	-46.064	
394.900	-29.899	
395.000	-44.770	
395.100	-38.072	
395.200	-46.431	
395.300	-22.644	
395.400	-39.608	
395.500	-44.854	
395.600	-54.783	
395.700	-37.422	
395.800	-34.913	
395.900	-41.343	
396.000	-44.262	
396.100	-27.933	
396.200	-35.469	
396.300	-43.106	
396.400	-40.421	
396.500	-54.157	
396.600	-37.583	
396.700	-24.362	
396.800	-42.117	
396.900	-28.382	
397.000	-36.787	
397.100	-40.207	
397.200	-34.014	
397.300	-31.748	
397.400	-34.674	
397.500	-39.968	
397.600	-27.256	
397.700	-32.191	
397.800	-43.110	
397.900	-28.468	
398.000	-32.385	
398.100	-39.818	
398.200	-25.806	
398.300	-37.069	
398.400	-31.427	
398.500	-29.242	
398.600	-37.851	
398.700	-43.616	
398.800	-17.745	
398.900	-45.514	
399.000	-24.194	
399.100	-26.659	
399.200	-22.083	
399.300	-38.100	
399.400	-37.108	
399.500	-28.107	
399.600	-36.120	
399.700	-41.296	
399.800	-35.877	
399.900	-32.089	
400.000	-41.159	
400.100	-17.312	
400.200	-37.984	
400.300	-17.977	
400.400	-40.891	
400.500	-22.825	
400.600	-48.295	
400.700	-51.143	
400.800	-29.765	
400.900	-25.475	
401.000	-27.617	
401.100	-20.858	
401.200	-30.580	
401.300	-36.172	
401.400	-28.889	
401.500	-28.971	
401.600	-29.317	
401.700	-38.004	
401.800	-24.456	
401.900	-30.136	
402.000	-16.930	
402.100	-43.512	
402.200	-23.924	
402.300	-33.257	
402.400	-25.585	
402.500	-32.142	
402.600	-36.341	
402.700	-45.321	
402.800	-36.947	
402.900	-38.682	
403.000	-21.271	
403.100	-24.869	
403.200	-29.747	
403.300	-27.644	
403.400	-19.660	
403.500	-38.270	
403.600	-31.685	
403.700	-32.195	
403.800	-28.105	
403.900	-35.261	
404.000	-26.843	
404.100	-28.701	
404.200	-38.597	
404.300	-48.106	
404.400	-33.707	
404.500	-14.918	
404.600	-23.281	
404.700	-35.537	
404.800	-36.559	
404.900	-22.188	
405.000	-34.058	
405.100	-36.552	
405.200	-27.918	
405.300	-24.114	
405.400	-32.378	
405.500	-22.662	
405.600	-15.421	
405.700	-44.277	
405.800	-31.396	
405.900	-49.077	
406.000	-26.433	
406.100	-18.497	
406.200	-34.964	
406.300	-33.221	
406.400	-21.804	
406.500	-30.280	
406.600	-13.960	
406.700	-32.379	
406.800	-37.613	
406.900	-24.660	
407.000	-37.284	
407.100	-39.942	
407.200	-36.740	
407.300	-29.883	
407.400	-24.257	
407.500	-22.080	
407.600	-49.434	
407.700	-15.871	
407.800	-31.114	
407.900	-37.507	
408.000	-29.205	
408.100	-24.506	
408.200	-27.116	
408.300	-21.473	
408.400	-23.612	
408.500	-8.017	
408.600	-31.191	
408.700	-42.952	
408.800	-24.277	
408.900	-34.518	
409.000	-37.163	
409.100	-10.679	
409.200	-27.201	
409.300	-28.393	
409.400	-20.880	
409.500	-25.073	
409.600	-39.025	
409.700	-24.514	
409.800	-37.787	
409.900	-24.489	
410.000	-32.727	
410.100	-40.496	
410.200	-8.501	
410.300	-27.757	
410.400	-26.143	
410.500	-18.289	
410.600	-29.584	
410.700	-22.817	
410.800	-18.272	
410.900	-33.507	
411.000	-29.064	
411.100	-23.157	
411.200	-29.979	
411.300	-29.931	
411.400	-28.821	
411.500	-19.897	
411.600	-27.068	
411.700	-17.476	
411.800	-36.333	
411.900	-24.994	
412.000	-25.367	
412.100	-27.859	
412.200	-18.387	
412.300	-20.732	
412.400	-32.276	
412.500	-1.729	
412.600	-27.254	
412.700	-33.467	
412.800	-25.720	
412.900	-31.217	
413.000	-17.525	
413.100	-16.809	
413.200	-45.898	
413.300	-24.664	
413.400	-30.712	
413.500	-20.173	
413.600	-28.006	
413.700	-29.987	
413.800	-15.475	
413.900	-16.087	
414.000	-28.709	
414.100	-24.908	
414.200	-18.795	
414.300	-35.551	
414.400	-16.511	
414.500	-26.280	
414.600	-24.201	
414.700	-31.227	
414.800	-24.476	
414.900	-28.379	
415.000	-29.478	
415.100	-23.574	
415.200	-31.866	
415.300	-15.843	
415.400	-12.052	
415.500	-19.539	
415.600	-36.841	
415.700	-28.411	
415.800	-11.339	
415.900	-18.592	
416.000	-25.830	
416.100	-27.090	
416.200	-24.531	
416.300	-19.207	
416.400	-40.634	
416.500	-29.383	
416.600	-25.503	
416.700	-17.268	
416.800	-22.885	
416.900	-20.079	
417.000	-22.605	
417.100	-19.624	
417.200	-19.006	
417.300	-39.170	
417.400	-20.714	
417.500	-24.332	
417.600	-20.266	
417.700	-21.562	
417.800	-24.352	
417.900	-16.121	
418.000	-22.609	
418.100	-16.144	
418.200	-16.872	
418.300	-24.995	
418.400	-28.802	
418.500	-17.342	
418.600	-15.817	
418.700	-31.171	
418.800	-25.739	
418.900	-20.595	
419.000	-32.012	
419.100	-33.074	
419.200	-30.092	
419.300	-6.048	
419.400	-25.859	
419.500	-21.470	
419.600	-21.725	
419.700	-27.384	
419.800	-24.408	
419.900	-24.355	
420.000	-19.520	
420.100	-26.667	
420.200	-23.845	
420.300	-15.610	
420.400	-23.546	
420.500	-17.280	
420.600	-21.805	
420.700	-21.407	
420.800	-26.360	
420.900	-17.913	
421.000	-6.700	
421.100	-30.202	
421.200	-23.168	
421.300	-21.675	
421.400	-39.104	
421.500	-19.279	
421.600	-11.917	
421.700	-29.790	
421.800	-25.567	
421.900	-25.467	
422.000	-12.793	
422.100	-32.633	
422.200	-20.089	
422.300	-16.007	
422.400	-29.479	
422.500	-20.817	
422.600	-14.399	
422.700	-26.402	
422.800	-25.890	
422.900	-17.890	
423.000	-19.342	
423.100	-10.679	
423.200	-24.429	
423.300	-33.622	
423.400	-16.207	
423.500	-26.584	
423.600	-12.694	
423.700	-17.488	
423.800	-22.692	
423.900	-6.013	
424.000	-28.231	
424.100	-28.293	
424.200	-18.557	
424.300	-31.095	
424.400	-22.872	
424.500	-19.939	
424.600	-19.078	
424.700	-29.703	
424.800	-1.044	
424.900	-24.798	
425.000	-24.758	
425.100	-26.533	
425.200	-17.822	
425.300	-21.124	
425.400	-25.353	
425.500	-16.996	
425.600	-16.998	
425.700	-22.762	
425.800	-21.370	
425.900	-29.189	
426.000	-2.163	
426.100	-28.970	
426.200	-5.880	
426.300	-13.833	
426.400	-23.643	
426.500	-18.334	
426.600	-20.271	
426.700	-25.468	
426.800	-9.852	
426.900	-31.521	
427.000	-21.673	
427.100	-18.166	
427.200	-27.766	
427.300	-13.724	
427.400	-17.410	
427.500	-14.161	
427.600	-24.968	
427.700	-1.348	
427.800	-23.397	
427.900	-34.453	
428.000	-15.166	
428.100	-21.298	
428.200	-21.969	
428.300	-20.646	
428.400	-15.035	
428.500	-31.047	
428.600	-6.599	
428.700	-30.560	
428.800	-24.746	
428.900	-20.473	
429.000	-21.573	
429.100	-16.366	
429.200	-29.745	
429.300	-18.202	
429.400	-20.605	
429.500	-20.555	
429.600	-10.292	
429.700	-38.769	
429.800	-18.261	
429.900	-17.158	
430.000	-18.234	
430.100	-12.576	
430.200	-14.679	
430.300	-43.762	
430.400	-12.594	
430.500	-15.013	
430.600	-14.725	
430.700	-14.623	
430.800	-16.283	
430.900	-5.459	
431.000	-16.913	
431.100	-19.762	
431.200	-12.953	
431.300	-38.178	
431.400	-17.154	
431.500	1.806	
431.600	-12.265	
431.700	-15.871	
431.800	-18.080	
431.900	-18.559	
432.000	-17.481	
432.100	-5.210	
432.200	-16.314	
432.300	-19.733	
432.400	-25.697	
432.500	-10.460	
432.600	-17.985	
432.700	-17.160	
432.800	-21.642	
432.900	-1.861	
433.000	-17.335	
433.100	-24.403	
433.200	-23.140	
433.300	-14.931	
433.400	-20.182	
433.500	-10.324	
433.600	-30.487	
433.700	-2.025	
433.800	-22.793	
433.900	-21.958	
434.000	-40.362	
434.100	-11.294	
434.200	-20.029	
434.300	-10.028	
434.400	-26.827	
434.500	-19.706	
434.600	-11.208	
434.700	-8.064	
434.800	-10.963	
434.900	-28.408	
435.000	-11.791	
435.100	-18.519	
435.200	-32.809	
435.300	-23.847	
435.400	-19.829	
435.500	-15.148	
435.600	-19.112	
435.700	-20.003	
435.800	-26.827	
435.900	-13.182	
436.000	-15.325	
436.100	-25.636	
436.200	-15.722	
436.300	-15.092	
436.400	-21.343	
436.500	-31.993	
436.600	-12.952	
436.700	-11.841	
436.800	-15.828	
436.900	-23.708	
437.000	-6.412	
437.100	-28.903	
437.200	-27.361	
437.300	-17.169	
437.400	-12.787	
437.500	-10.869	
437.600	-12.605	
437.700	-14.514	
437.800	-28.079	
437.900	-9.029	
438.000	-19.776	
438.100	-12.195	
438.200	-15.190	
438.300	-22.803	
438.400	-15.308	
438.500	-26.056	
438.600	-23.637	
438.700	-14.332	
438.800	-21.655	
438.900	-27.008	
439.000	-3.579	
439.100	-7.145	
439.200	-35.098	
439.300	-12.060	
439.400	-17.960	
439.500	-9.537	
439.600	-19.331	
439.700	-6.418	
439.800	-13.685	
439.900	-23.816	
440.000	-25.318	
440.100	-8.584	
440.200	-10.083	
440.300	-13.190	
440.400	-11.957	
440.500	-28.003	
440.600	-15.881	
440.700	-22.381	
440.800	-10.745	
440.900	-15.078	
441.000	-36.318	
441.100	-15.837	
441.200	-27.519	
441.300	-27.020	
441.400	-22.133	
441.500	-29.047	
441.600	-17.219	
441.700	-19.951	
441.800	-20.570	
441.900	-11.629	
442.000	-14.712	
442.100	-13.443	
442.200	-31.509	
442.300	-5.638	
442.400	-9.893	
442.500	-23.375	
442.600	10.099	
442.700	-19.946	
442.800	-29.879	
442.900	-19.555	
443.000	-16.599	
443.100	-21.704	
443.200	-24.169	
443.300	-20.312	
443.400	-22.477	
443.500	-8.164	
443.600	-20.093	
443.700	-13.882	
443.800	-4.566	
443.900	-22.877	
444.000	-6.701	
444.100	-20.172	
444.200	-6.505	
444.300	-21.643	
444.400	-8.966	
444.500	-21.681	
444.600	-12.781	
444.700	-15.769	
444.800	-8.752	
444.900	0.843	
445.000	-21.325	
445.100	-11.856	
445.200	-8.307	
445.300	-9.603	
445.400	-26.564	
445.500	-20.974	
445.600	-24.598	
445.700	-7.660	
445.800	-12.054	
445.900	-16.142	
446.000	-11.544	
446.100	-8.195	
446.200	-12.460	
446.300	-26.801	
446.400	-15.576	
446.500	2.411	
446.600	-10.830	
446.700	-24.314	
446.800	-12.662	
446.900	-17.295	
447.000	-12.961	
447.100	-7.225	
447.200	-31.609	
447.300	-20.649	
447.400	-10.507	
447.500	-20.655	
447.600	-19.385	
447.700	-9.218	
447.800	-5.801	
447.900	-23.775	
448.000	-12.448	
448.100	-12.349	
448.200	-12.163	
448.300	-9.650	
448.400	-13.344	
448.500	-5.239	
448.600	-18.576	
448.700	-13.125	
448.800	-7.089	
448.900	-15.946	
449.000	-16.979	
449.100	-14.160	
449.200	-14.849	
449.300	-21.341	
449.400	-9.259	
449.500	-10.576	
449.600	-22.166	
449.700	-8.050	
449.800	-17.925	
449.900	-18.752	
450.000	-13.923	
450.100	-10.958	
450.200	-13.628	
450.300	-9.436	
450.400	-9.799	
450.500	-14.165	
450.600	-12.290	
450.700	-9.918	
450.800	-25.282	
450.900	-18.623	
451.000	-13.548	
451.100	-11.902	
451.200	-12.686	
451.300	-7.498	
451.400	-15.062	
451.500	-9.278	
451.600	-5.797	
451.700	-23.101	
451.800	-7.798	
451.900	-17.074	
452.000	-23.444	
452.100	-1.445	
452.200	-22.895	
452.300	-16.523	
452.400	-12.100	
452.500	-14.561	
452.600	-13.770	
452.700	-13.197	
452.800	-14.415	
452.900	-15.787	
453.000	-9.339	
453.100	-11.190	
453.200	-21.228	
453.300	-2.221	
453.400	-12.133	
453.500	-18.524	
453.600	0.466	
453.700	-15.148	
453.800	-30.643	
453.900	-4.378	
454.000	-26.631	
454.100	-7.842	
454.200	-10.573	
454.300	-32.377	
454.400	-12.785	
454.500	-21.018	
454.600	-14.055	
454.700	-14.754	
454.800	-11.499	
454.900	-11.097	
455.000	-10.967	
455.100	-9.617	
455.200	-8.763	
455.300	-20.155	
455.400	-22.310	
455.500	-14.067	
455.600	-11.921	
455.700	-13.615	
455.800	-23.321	
455.900	-11.103	
456.000	-15.351	
456.100	-15.351	
456.200	-14.820	
456.300	-15.752	
456.400	-18.513	
456.500	-9.415	
456.600	-14.680	
456.700	-11.446	
456.800	-27.532	
456.900	-5.777	
457.000	-10.740	
457.100	-18.869	
457.200	-9.904	
457.300	-14.769	
457.400	-12.938	
457.500	-4.362	
457.600	-17.546	
457.700	-10.712	
457.800	-9.709	
457.900	-22.630	
458.000	-14.930	
458.100	-19.482	
458.200	-7.491	
458.300	-13.227	
458.400	-5.968	
458.500	-15.448	
458.600	-14.067	
458.700	-2.570	
458.800	-10.347	
458.900	-6.570	
459.000	-9.208	
459.100	-22.783	
459.200	-4.509	
459.300	-17.734	
459.400	-20.250	
459.500	-4.304	
459.600	-18.884	
459.700	-9.415	
459.800	-7.118	
459.900	-6.131	
460.000	-15.730	
460.100	-3.806	
460.200	-21.402	
460.300	-14.307	
460.400	-15.917	
460.500	1.065	
460.600	-10.218	
460.700	-10.663	
460.800	-18.109	
460.900	-5.518	
461.000	-10.575	
461.100	-22.340	
461.200	-15.183	
461.300	-2.897	
461.400	-17.649	
461.500	-12.445	
461.600	-13.427	
461.700	-10.950	
461.800	-4.704	
461.900	-2.324	
462.000	0.849	
462.100	-24.788	
462.200	-4.945	
462.300	-6.638	
462.400	-6.569	
462.500	-12.171	
462.600	-14.471	
462.700	-19.618	
462.800	-7.366	
462.900	-1.715	
463.000	-8.549	
463.100	-18.834	
463.200	-12.172	
463.300	-7.041	
463.400	-19.372	
463.500	-17.435	
463.600	-24.185	
463.700	-9.177	
463.800	-12.799	
463.900	-12.362	
464.000	-4.932	
464.100	-1.727	
464.200	-8.954	
464.300	-16.150	
464.400	-13.248	
464.500	-15.779	
464.600	-9.443	
464.700	-9.726	
464.800	-16.117	
464.900	-21.430	
465.000	-15.769	
465.100	-2.695	
465.200	-22.698	
465.300	-15.289	
465.400	-10.879	
465.500	-25.695	
465.600	-12.905	
465.700	-22.493	
465.800	1.139	
465.900	11.628	
466.000	-15.727	
466.100	-21.283	
466.200	-9.737	
466.300	4.676	
466.400	-19.384	
466.500	3.098	
466.600	-7.976	
466.700	-8.680	
466.800	-6.926	
466.900	-16.834	
467.000	-11.338	
467.100	-16.537	
467.200	-13.907	
467.300	-12.502	
467.400	2.435	
467.500	-14.517	
467.600	-7.828	
467.700	-10.213	
467.800	-13.589	
467.900	-28.733	
468.000	-11.344	
468.100	-10.531	
468.200	0.688	
468.300	-22.785	
468.400	-17.030	
468.500	-11.878	
468.600	-23.067	
468.700	-5.451	
468.800	-10.534	
468.900	-17.631	
469.000	-13.740	
469.100	-16.386	
469.200	-17.216	
469.300	-21.559	
469.400	5.289	
469.500	-10.431	
469.600	-4.124	
469.700	-9.912	
469.800	-4.466	
469.900	-25.369	
470.000	-4.907	
470.100	-20.497	
470.200	-11.506	
470.300	-4.706	
470.400	-24.378	
470.500	-17.821	
470.600	-16.898	
470.700	-14.205	
470.800	-11.717	
470.900	-9.982	
471.000	-4.768	
471.100	-17.464	
471.200	-10.363	
471.300	-9.694	
471.400	-5.012	
471.500	-6.400	
471.600	-11.692	
471.700	-22.564	
471.800	-7.132	
471.900	-9.063	
472.000	-12.738	
472.100	-21.182	
472.200	-21.015	
472.300	-2.444	
472.400	-8.678	
472.500	-16.866	
472.600	-17.427	
472.700	-25.907	
472.800	-9.295	
472.900	-9.230	
473.000	-19.069	
473.100	-1.927	
473.200	-15.500	
473.300	-6.718	
473.400	-19.705	
473.500	-7.611	
473.600	-3.563	
473.700	-22.347	
473.800	-12.956	
473.900	2.677	
474.000	-18.308	
474.100	-10.391	
474.200	-12.045	
474.300	-14.887	
474.400	-10.632	
474.500	-21.234	
474.600	-10.796	
474.700	-1.216	
474.800	-22.835	
474.900	-11.333	
475.000	-10.824	
475.100	-5.230	
475.200	-12.919	
475.300	-7.180	
475.400	-10.907	
475.500	-10.139	
475.600	-4.917	
475.700	-5.677	
475.800	-11.763	
475.900	1.252	
476.000	-0.721	
476.100	-12.425	
476.200	-9.722	
476.300	-1.981	
476.400	-26.827	
476.500	-3.549	
476.600	-11.074	
476.700	-5.554	
476.800	-16.351	
476.900	-23.697	
477.000	-8.741	
477.100	-4.883	
477.200	-17.530	
477.300	-14.406	
477.400	-15.217	
477.500	-14.204	
477.600	-5.197	
477.700	-8.776	
477.800	-10.475	
477.900	-21.736	
478.000	-6.154	
478.100	-7.549	
478.200	-13.924	
478.300	-25.709	
478.400	-3.006	
478.500	-8.378	
478.600	-8.113	
478.700	1.573	
478.800	-10.040	
478.900	-20.077	
479.000	-19.234	
479.100	1.070	
479.200	-22.042	
479.300	-11.425	
479.400	-15.031	
479.500	-3.930	
479.600	-21.736	
479.700	-3.748	
479.800	-14.769	
479.900	-8.487	
480.000	-8.794	
480.100	-13.880	
480.200	-5.517	
480.300	-3.947	
480.400	15.100	
480.500	24.820	
480.600	6.573	
480.700	27.893	
480.800	38.138	
480.900	26.539	
481.000	29.690	
481.100	35.018	
481.200	54.828	
481.300	40.852	
481.400	45.584	
481.500	37.305	
481.600	45.486	
481.700	36.235	
481.800	46.495	
481.900	22.137	
482.000	37.592	
482.100	38.951	
482.200	37.355	
482.300	35.650	
482.400	33.571	
482.500	41.147	
482.600	37.919	
482.700	18.972	
482.800	32.938	
482.900	32.605	
483.000	36.989	
483.100	31.166	
483.200	40.693	
483.300	32.233	
483.400	32.720	
483.500	20.447	
483.600	35.177	
483.700	34.939	
483.800	30.038	
483.900	15.611	
484.000	47.900	
484.100	29.318	
484.200	31.171	
484.300	30.911	
484.400	13.820	
484.500	19.550	
484.600	31.321	
484.700	24.556	
484.800	29.597	
484.900	37.409	
485.000	24.961	
485.100	34.894	
485.200	27.658	
485.300	18.641	
485.400	40.166	
485.500	30.104	
485.600	27.017	
485.700	27.300	
485.800	16.191	
485.900	27.247	
486.000	21.172	
486.100	36.822	
486.200	30.014	
486.300	29.551	
486.400	17.500	
486.500	26.681	
486.600	28.540	
486.700	39.266	
486.800	34.242	
486.900	42.428	
487.000	31.732	
487.100	46.110	
487.200	42.299	
487.300	25.968	
487.400	36.366	
487.500	37.089	
487.600	46.430	
487.700	28.711	
487.800	26.862	
487.900	36.602	
488.000	28.769	
488.100	53.386	
488.200	40.116	
488.300	38.680	
488.400	34.113	
488.500	49.788	
488.600	41.581	
488.700	33.354	
488.800	49.712	
488.900	46.015	
489.000	48.508	
489.100	27.564	
489.200	39.170	
489.300	38.051	
489.400	49.223	
489.500	49.587	
489.600	50.005	
489.700	31.286	
489.800	50.789	
489.900	43.904	
490.000	47.436	
490.100	50.573	
490.200	46.936	
490.300	35.863	
490.400	47.292	
490.500	50.335	
490.600	47.970	
490.700	49.808	
490.800	46.933	
490.900	56.350	
491.000	46.215	
491.100	35.010	
491.200	43.687	
491.300	51.184	
491.400	48.582	
491.500	39.852	
491.600	45.085	
491.700	49.843	
491.800	55.655	
491.900	48.404	
492.000	47.083	
492.100	51.931	
492.200	33.825	
492.300	59.561	
492.400	54.307	
492.500	63.574	
492.600	57.147	
492.700	36.362	
492.800	47.153	
492.900	53.529	
493.000	53.843	
493.100	60.374	
493.200	41.088	
493.300	50.698	
493.400	56.792	
493.500	47.995	
493.600	55.124	
493.700	57.863	
493.800	43.443	
493.900	46.696	
494.000	60.485	
494.100	48.646	
494.200	43.083	
494.300	63.907	
494.400	64.763	
494.500	52.282	
494.600	50.070	
494.700	51.943	
494.800	51.973	
494.900	57.489	
495.000	58.729	
495.100	59.523	
495.200	54.623	
495.300	34.418	
495.400	57.295	
495.500	66.360	
495.600	50.801	
495.700	40.857	
495.800	61.873	
495.900	56.594	
496.000	55.810	
496.100	55.701	
496.200	55.232	
496.300	45.910	
496.400	61.782	
496.500	51.056	
496.600	45.703	
496.700	58.927	
496.800	47.115	
496.900	47.078	
497.000	49.116	
497.100	58.308	
497.200	45.991	
497.300	53.984	
497.400	60.594	
497.500	52.587	
497.600	56.116	
497.700	51.772	
497.800	48.465	
497.900	59.842	
498.000	49.617	
498.100	44.855	
498.200	42.541	
498.300	56.493	
498.400	62.662	
498.500	50.265	
498.600	53.782	
498.700	58.104	
498.800	57.273	
498.900	47.822	
499.000	42.769	
499.100	46.417	
499.200	62.263	
499.300	50.477	
499.400	48.957	
499.500	53.640	
499.600	61.587	
499.700	49.821	
499.800	51.497	
499.900	47.409	
500.000	29.470	
500.100	44.997	
500.200	66.398	
500.300	48.729	
500.400	51.585	
500.500	53.637	
500.600	58.578	
500.700	65.645	
500.800	50.406	
500.900	54.979	
501.000	45.247	
501.100	58.091	
501.200	50.107	
501.300	51.584	
501.400	36.779	
501.500	43.413	
501.600	47.550	
501.700	55.758	
501.800	57.307	
501.900	36.798	
502.000	50.656	
502.100	61.916	
502.200	54.112	
502.300	52.635	
502.400	53.181	
502.500	38.473	
502.600	66.316	
502.700	50.952	
502.800	51.086	
502.900	49.231	
503.000	45.859	
503.100	58.178	
503.200	55.464	
503.300	57.907	
503.400	58.002	
503.500	45.621	
503.600	56.191	
503.700	48.358	
503.800	54.593	
503.900	57.026	
504.000	58.028	
504.100	55.708	
504.200	51.036	
504.300	47.993	
504.400	60.930	
504.500	48.255	
504.600	47.052	
504.700	52.371	
504.800	66.277	
504.900	52.127	
505.000	47.754	
505.100	50.003	
505.200	39.718	
505.300	70.667	
505.400	40.730	
505.500	51.517	
505.600	44.345	
505.700	55.471	
505.800	63.829	
505.900	42.917	
506.000	60.942	
506.100	59.535	
506.200	65.604	
506.300	49.550	
506.400	55.490	
506.500	57.797	
506.600	59.461	
506.700	51.156	
506.800	48.991	
506.900	42.934	
507.000	51.724	
507.100	54.834	
507.200	52.841	
507.300	54.353	
507.400	48.687	
507.500	49.337	
507.600	58.954	
507.700	53.208	
507.800	45.337	
507.900	62.434	
508.000	46.040	
508.100	51.087	
508.200	49.424	
508.300	32.323	
508.400	59.191	
508.500	52.733	
508.600	53.937	
508.700	43.703	
508.800	46.279	
508.900	57.526	
509.000	54.001	
509.100	54.571	
509.200	53.711	
509.300	44.211	
509.400	60.799	
509.500	55.380	
509.600	50.009	
509.700	55.024	
509.800	51.252	
509.900	47.632	
510.000	46.431	
510.100	57.561	
510.200	49.447	
510.300	45.563	
510.400	54.231	
510.500	52.006	
510.600	45.514	
510.700	59.065	
510.800	57.657	
510.900	60.908	
511.000	47.048	
511.100	44.155	
511.200	45.847	
511.300	54.643	
511.400	48.597	
511.500	57.990	
511.600	46.607	
511.700	55.566	
511.800	49.465	
511.900	42.554	
512.000	48.834	
512.100	53.944	
512.200	55.033	
512.300	51.682	
512.400	36.724	
512.500	55.377	
512.600	49.934	
512.700	38.522	
512.800	53.533	
512.900	47.098	
513.000	60.008	
513.100	45.707	
513.200	48.095	
513.300	59.148	
513.400	45.975	
513.500	51.979	
513.600	62.400	
513.700	43.020	
513.800	47.021	
513.900	43.898	
514.000	56.880	
514.100	46.681	
514.200	58.343	
514.300	53.157	
514.400	45.577	
514.500	41.507	
514.600	51.550	
514.700	50.288	
514.800	48.328	
514.900	37.938	
515.000	57.438	
515.100	46.904	
515.200	56.767	
515.300	49.043	
515.400	63.197	
515.500	46.707	
515.600	43.348	
515.700	46.618	
515.800	48.882	
515.900	51.864	
516.000	56.073	
516.100	43.460	
516.200	42.267	
516.300	55.987	
516.400	56.661	
516.500	57.955	
516.600	52.042	
516.700	39.906	
516.800	57.091	
516.900	50.795	
517.000	55.700	
517.100	57.172	
517.200	42.086	
517.300	59.867	
517.400	44.301	
517.500	56.642	
517.600	55.540	
517.700	43.525	
517.800	48.074	
517.900	47.151	
518.000	40.307	
518.100	46.930	
518.200	54.139	
518.300	41.886	
518.400	59.667	
518.500	45.844	
518.600	52.148	
518.700	49.913	
518.800	51.594	
518.900	61.900	
519.000	50.954	
519.100	47.785	
519.200	49.799	
519.300	51.132	
519.400	40.181	
519.500	56.355	
519.600	50.816	
519.700	59.479	
519.800	51.624	
519.900	41.733	
520.000	42.879	
520.100	55.448	
520.200	35.008	
520.300	43.709	
520.400	56.588	
520.500	54.428	
520.600	64.266	
520.700	39.503	
520.800	40.191	
520.900	33.628	
521.000	59.829	
521.100	55.688	
521.200	53.791	
521.300	56.806	
521.400	55.004	
521.500	45.361	
521.600	43.121	
521.700	67.498	
521.800	40.342	
521.900	52.621	
522.000	47.371	
522.100	55.958	
522.200	33.775	
522.300	43.647	
522.400	41.515	
522.500	62.060	
522.600	49.840	
522.700	26.587	
522.800	56.291	
522.900	53.169	
523.000	66.969	
523.100	46.681	
523.200	32.589	
523.300	55.783	
523.400	65.047	
523.500	50.893	
523.600	38.248	
523.700	41.564	
523.800	45.212	
523.900	43.752	
524.000	47.577	
524.100	52.302	
524.200	52.083	
524.300	46.063	
524.400	48.279	
524.500	48.699	
524.600	42.301	
524.700	58.138	
524.800	53.784	
524.900	47.991	
525.000	43.535	
525.100	44.868	
525.200	54.557	
525.300	49.400	
525.400	58.613	
525.500	54.923	
525.600	50.146	
525.700	42.589	
525.800	53.077	
525.900	49.867	
526.000	46.048	
526.100	58.246	
526.200	48.560	
526.300	54.496	
526.400	57.620	
526.500	55.096	
526.600	40.336	
526.700	36.543	
526.800	46.698	
526.900	47.526	
527.000	46.315	
527.100	48.166	
527.200	57.486	
527.300	43.209	
527.400	48.245	
527.500	50.358	
527.600	46.402	
527.700	57.885	
527.800	60.043	
527.900	47.244	
528.000	41.418	
528.100	52.340	
528.200	51.032	
528.300	55.646	
528.400	61.144	
528.500	41.856	
528.600	54.208	
528.700	51.280	
528.800	44.763	
528.900	50.295	
529.000	48.213	
529.100	53.921	
529.200	61.711	
529.300	51.116	
529.400	44.495	
529.500	38.364	
529.600	52.733	
529.700	49.601	
529.800	48.468	
529.900	48.627	
530.000	33.247	
530.100	54.715	
530.200	49.946	
530.300	58.055	
530.400	38.575	
530.500	45.998	
530.600	48.781	
530.700	49.053	
530.800	48.872	
530.900	49.951	
531.000	57.826	
531.100	55.443	
531.200	35.573	
531.300	53.147	
531.400	55.751	
531.500	40.506	
531.600	45.265	
531.700	49.607	
531.800	48.197	
531.900	35.681	
532.000	47.327	
532.100	44.821	
532.200	49.874	
532.300	49.439	
532.400	61.503	
532.500	47.285	
532.600	55.008	
532.700	56.386	
532.800	46.441	
532.900	36.275	
533.000	45.945	
533.100	61.120	
533.200	56.277	
533.300	45.746	
533.400	52.216	
533.500	49.954	
533.600	45.254	
533.700	54.988	
533.800	52.189	
533.900	44.162	
534.000	37.990	
534.100	49.442	
534.200	52.580	
534.300	57.677	
534.400	47.179	
534.500	58.647	
534.600	37.164	
534.700	51.251	
534.800	47.290	
534.900	49.265	
535.000	39.195	
535.100	57.341	
535.200	42.507	
535.300	35.126	
535.400	57.259	
535.500	67.856	
535.600	49.321	
535.700	47.546	
535.800	49.173	
535.900	60.576	
536.000	51.299	
536.100	46.522	
536.200	39.080	
536.300	43.495	
536.400	42.249	
536.500	52.155	
536.600	48.276	
536.700	63.984	
536.800	48.670	
536.900	52.069	
537.000	46.553	
537.100	51.859	
537.200	41.727	
537.300	57.787	
537.400	44.729	
537.500	33.622	
537.600	30.472	
537.700	39.507	
537.800	38.824	
537.900	54.536	
538.000	50.142	
538.100	47.261	
538.200	38.860	
538.300	54.423	
538.400	40.337	
538.500	58.536	
538.600	49.923	
538.700	47.922	
538.800	49.357	
538.900	62.000	
539.000	46.016	
539.100	49.701	
539.200	53.265	
539.300	49.605	
539.400	45.948	
539.500	44.347	
539.600	48.380	
539.700	40.344	
539.800	47.174	
539.900	52.575	
540.000	59.384	
540.100	38.852	
540.200	48.584	
540.300	48.214	
540.400	44.881	
540.500	35.456	
540.600	19.758	
540.700	37.945	
540.800	20.001	
540.900	23.380	
541.000	19.404	
541.100	5.612	
541.200	13.120	
541.300	1.452	
541.400	6.800	
541.500	-10.728	
541.600	-5.257	
541.700	-15.285	
541.800	-14.770	
541.900	-19.922	
542.000	-26.300	
542.100	-21.462	
542.200	-13.545	
542.300	-14.861	
542.400	-25.309	
542.500	-28.878	
542.600	-22.600	
542.700	-23.835	
542.800	-38.881	
542.900	-35.719	
543.000	-35.279	
543.100	-37.089	
543.200	-46.972	
543.300	-26.941	
543.400	-35.533	
543.500	-46.236	
543.600	-27.595	
543.700	-43.753	
543.800	-42.406	
543.900	-39.046	
544.000	-31.327	
544.100	-40.771	
544.200	-37.129	
544.300	-47.434	
544.400	-30.257	
544.500	-39.200	
544.600	-40.561	
544.700	-51.459	
544.800	-39.024	
544.900	-44.014	
545.000	-38.511	
545.100	-41.805	
545.200	-44.651	
545.300	-23.609	
545.400	-36.977	
545.500	-29.321	
545.600	-34.885	
545.700	-46.616	
545.800	-32.710	
545.900	-39.595	
546.000	-41.937	
546.100	-48.445	
546.200	-41.515	
546.300	-46.346	
546.400	-43.442	
546.500	-35.104	
546.600	-25.838	
546.700	-42.321	
546.800	-36.508	
546.900	-34.993	
547.000	-37.159	
547.100	-36.799	
547.200	-27.192	
547.300	-33.413	
547.400	-38.147	
547.500	-38.911	
547.600	-37.918	
547.700	-29.111	
547.800	-25.572	
547.900	-42.194	
548.000	-43.201	
548.100	-24.661	
548.200	-37.574	
548.300	-38.456	
548.400	-38.822	
548.500	-49.753	
548.600	-28.594	
548.700	-38.823	
548.800	-43.776	
548.900	-36.980	
549.000	-26.749	
549.100	-32.970	
549.200	-47.668	
549.300	-41.907	
549.400	-34.070	
549.500	-32.024	
549.600	-28.959	
549.700	-32.962	
549.800	-39.055	
549.900	-34.113	
550.000	-30.075	
550.100	-55.488	
550.200	-26.813	
550.300	-29.275	
550.400	-42.992	
550.500	-30.410	
550.600	-24.717	
550.700	-33.483	
550.800	-38.843	
550.900	-36.534	
551.000	-38.329	
551.100	-30.587	
551.200	-38.500	
551.300	-39.160	
551.400	-38.769	
551.500	-35.524	
551.600	-31.877	
551.700	-39.595	
551.800	-32.359	
551.900	-22.799	
552.000	-36.994	
552.100	-44.118	
552.200	-25.296	
552.300	-31.953	
552.400	-32.928	
552.500	-35.382	
552.600	-35.217	
552.700	-31.884	
552.800	-35.997	
552.900	-19.078	
553.000	-40.803	
553.100	-37.844	
553.200	-42.890	
553.300	-9.577	
553.400	-34.429	
553.500	-30.215	
553.600	-32.004	
553.700	-27.507	
553.800	-39.652	
553.900	-26.663	
554.000	-38.182	
554.100	-38.915	
554.200	-33.815	
554.300	-38.368	
554.400	-40.157	
554.500	-33.270	
554.600	-28.544	
554.700	-16.089	
554.800	-33.782	
554.900	-37.648	
555.000	-25.086	
555.100	-31.914	
555.200	-33.401	
555.300	-25.879	
555.400	-24.919	
555.500	-26.289	
555.600	-45.961	
555.700	-25.598	
555.800	-21.394	
555.900	-27.255	
556.000	-30.043	
556.100	-31.801	
556.200	-43.998	
556.300	-16.676	
556.400	-46.377	
556.500	-14.439	
556.600	-47.766	
556.700	-34.107	
556.800	-29.489	
556.900	-37.021	
557.000	-27.712	
557.100	-32.270	
557.200	-36.625	
557.300	-23.680	
557.400	-35.187	
557.500	-28.364	
557.600	-42.330	
557.700	-18.440	
557.800	-34.075	
557.900	-25.170	
558.000	-19.502	
558.100	-26.415	
558.200	-23.455	
558.300	-36.284	
558.400	-36.221	
558.500	-33.448	
558.600	-32.151	
558.700	-28.323	
558.800	-28.604	
558.900	-20.615	
559.000	-19.433	
559.100	-48.967	
559.200	-28.330	
559.300	-28.431	
559.400	-33.519	
559.500	-35.604	
559.600	-24.305	
559.700	-28.678	
559.800	-35.187	
559.900	-29.971	
560.000	-25.927	
560.100	-34.181	
560.200	-32.346	
560.300	-22.151	
560.400	-26.825	
560.500	-30.372	
560.600	-32.953	
560.700	-16.794	
560.800	-27.026	
560.900	-39.968	
561.000	-26.602	
561.100	-18.896	
561.200	-30.660	
561.300	-24.331	
561.400	-23.330	
561.500	-34.305	
561.600	-45.266	
561.700	-24.934	
561.800	-30.914	
561.900	-31.919	
562.000	-33.473	
562.100	-36.275	
562.200	-25.958	
562.300	-29.682	
562.400	-15.171	
562.500	-16.713	
562.600	-17.650	
562.700	-20.428	
562.800	-23.915	
562.900	-32.458	
563.000	-28.738	
563.100	-19.998	
563.200	-30.590	
563.300	-31.448	
563.400	-24.970	
563.500	-20.594	
563.600	-20.873	
563.700	-13.987	
563.800	-20.379	
563.900	-28.532	
564.000	-20.970	
564.100	-39.204	
564.200	-42.463	
564.300	-29.233	
564.400	-26.421	
564.500	-34.311	
564.600	-27.797	
564.700	-23.077	
564.800	-42.162	
564.900	-18.982	
565.000	-9.758	
565.100	-17.468	
565.200	-13.775	
565.300	-23.453	
565.400	-18.576	
565.500	-28.894	
565.600	-36.741	
565.700	-12.735	
565.800	-24.076	
565.900	-29.609	
566.000	-31.423	
566.100	-31.642	
566.200	-29.035	
566.300	-18.261	
566.400	-23.252	
566.500	-29.050	
566.600	-18.491	
566.700	-23.240	
566.800	-21.895	
566.900	-17.119	
567.000	-20.552	
567.100	-36.682	
567.200	-18.074	
567.300	-17.944	
567.400	-29.172	
567.500	-16.124	
567.600	-12.737	
567.700	-25.454	
567.800	-38.748	
567.900	-17.037	
568.000	-13.425	
568.100	-19.921	
568.200	-31.432	
568.300	-17.785	
568.400	-19.190	
568.500	-22.104	
568.600	-26.249	
568.700	-29.685	
568.800	-28.146	
568.900	-22.263	
569.000	-38.117	
569.100	-31.000	
569.200	-28.251	
569.300	-14.143	
569.400	-37.842	
569.500	-25.635	
569.600	-29.231	
569.700	-18.006	
569.800	-37.069	
569.900	-17.307	
570.000	-21.130	
570.100	-24.355	
570.200	-29.701	
570.300	-40.544	
570.400	-13.207	
570.500	-9.370	
570.600	-24.315	
570.700	-21.764	
570.800	-19.507	
570.900	-27.234	
571.000	-17.011	
571.100	-22.585	
571.200	-37.961	
571.300	-22.940	
571.400	-26.682	
571.500	-21.066	
571.600	0.037	
571.700	-30.012	
571.800	-26.964	
571.900	-15.407	
572.000	-30.038	
572.100	-15.559	
572.200	-17.637	
572.300	-15.844	
572.400	-17.086	
572.500	-22.917	
572.600	-17.380	
572.700	-24.517	
572.800	-24.043	
572.900	-31.305	
573.000	-35.907	
573.100	-13.308	
573.200	-22.835	
573.300	-26.071	
573.400	-29.602	
573.500	-1.924	
573.600	-13.735	
573.700	-34.068	
573.800	-17.996	
573.900	-19.737	
574.000	-24.301	
574.100	-27.039	
574.200	-17.928	
574.300	-24.075	
574.400	-23.054	
574.500	-19.300	
574.600	-16.398	
574.700	-18.753	
574.800	-1.081	
574.900	-19.943	
575.000	-27.798	
575.100	-9.407	
575.200	-42.785	
575.300	-14.763	
575.400	-18.088	
575.500	-23.822	
575.600	-30.260	
575.700	-21.531	
575.800	-12.030	
575.900	-15.316	
576.000	-24.939	
576.100	-16.220	
576.200	-22.119	
576.300	-15.448	
576.400	-25.927	
576.500	-20.634	
576.600	-15.865	
576.700	-43.409	
576.800	-16.264	
576.900	-24.224	
577.000	-18.656	
577.100	-10.161	
577.200	-16.665	
577.300	-27.797	
577.400	-25.682	
577.500	-22.906	
577.600	-27.991	
577.700	-7.175	
577.800	-27.720	
577.900	-23.459	
578.000	-11.586	
578.100	-15.414	
578.200	-17.136	
578.300	-30.542	
578.400	-24.889	
578.500	-15.363	
578.600	-38.048	
578.700	-35.325	
578.800	-9.227	
578.900	-12.542	
579.000	-16.047	
579.100	-22.954	
579.200	-2.018	
579.300	-16.580	
579.400	-30.910	
579.500	-13.650	
579.600	-26.471	
579.700	-12.780	
579.800	-26.577	
579.900	-25.861	
580.000	-3.925	
580.100	-23.601	
580.200	-16.025	
580.300	-25.719	
580.400	-20.425	
580.500	-11.822	
580.600	-24.077	
580.700	-24.554	
580.800	-6.506	
580.900	-28.439	
581.000	-12.735	
581.100	-8.429	
581.200	-20.715	
581.300	-10.484	
581.400	-31.922	
581.500	-14.791	
581.600	-13.676	
581.700	-8.789	
581.800	-24.865	
581.900	-35.885	
582.000	-30.639	
582.100	-17.257	
582.200	-7.791	
582.300	-34.451	
582.400	-31.125	
582.500	-14.379	
582.600	-17.700	
582.700	-26.885	
582.800	-19.766	
582.900	-18.879	
583.000	-10.826	
583.100	-23.090	
583.200	-17.066	
583.300	-20.586	
583.400	-21.364	
583.500	-31.175	
583.600	-8.489	
583.700	-18.229	
583.800	-16.178	
583.900	-4.470	
584.000	-21.273	
584.100	-22.143	
584.200	-9.593	
584.300	-36.470	
584.400	-29.045	
584.500	-26.299	
584.600	-11.813	
584.700	-6.370	
584.800	-27.459	
584.900	-20.283	
585.000	-16.990	
585.100	-22.108	
585.200	-27.611	
585.300	-19.282	
585.400	-21.842	
585.500	-6.250	
585.600	-13.963	
585.700	-12.694	
585.800	-24.650	
585.900	-35.746	
586.000	-9.363	
586.100	-8.080	
586.200	-24.155	
586.300	-20.790	
586.400	-20.958	
586.500	-26.004	
586.600	-28.644	
586.700	-11.324	
586.800	-14.427	
586.900	-19.202	
587.000	-18.644	
587.100	-28.075	
587.200	-29.271	
587.300	-29.974	
587.400	-6.064	
587.500	-14.957	
587.600	-28.542	
587.700	-19.269	
587.800	-4.049	
587.900	-23.113	
588.000	-17.245	
588.100	-18.216	
588.200	-24.147	
588.300	-6.536	
588.400	-12.586	
588.500	-30.528	
588.600	-22.862	
588.700	-9.334	
588.800	-10.602	
588.900	-25.002	
589.000	-11.499	
589.100	-16.374	
589.200	-10.138	
589.300	-11.018	
589.400	-15.403	
589.500	-11.668	
589.600	-19.187	
589.700	-15.040	
589.800	-19.745	
589.900	-16.000	
590.000	-17.795	
590.100	-21.380	
590.200	-12.993	
590.300	-2.718	
590.400	-28.221	
590.500	-16.696	
590.600	-24.527	
590.700	-23.201	
590.800	-15.645	
590.900	-16.157	
591.000	-28.299	
591.100	-14.506	
591.200	-11.067	
591.300	-17.469	
591.400	-9.722	
591.500	-23.313	
591.600	-20.013	
591.700	-26.942	
591.800	-24.423	
591.900	-9.897	
592.000	-23.340	
592.100	-6.994	
592.200	-27.989	
592.300	-8.418	
592.400	-9.722	
592.500	-18.733	
592.600	-14.367	
592.700	-29.434	
592.800	-12.998	
592.900	-4.398	
593.000	-21.849	
593.100	-1.962	
593.200	2.728	
593.300	-13.636	
593.400	-37.753	
593.500	-20.585	
593.600	-6.436	
593.700	-13.162	
593.800	-19.477	
593.900	-27.118	
594.000	-1.518	
594.100	-26.037	
594.200	-38.669	
594.300	-17.927	
594.400	-0.682	
594.500	-7.611	
594.600	-16.312	
594.700	-11.448	
594.800	-2.241	
594.900	-14.825	
595.000	-15.787	
595.100	-22.644	
595.200	-30.738	
595.300	-12.028	
595.400	-15.960	
595.500	-23.514	
595.600	-19.265	
595.700	-16.426	
595.800	-8.308	
595.900	-22.765	
596.000	-30.250	
596.100	-21.692	
596.200	-15.853	
596.300	-17.961	
596.400	-8.738	
596.500	-18.887	
596.600	-23.445	
596.700	-20.095	
596.800	-18.015	
596.900	-8.750	
597.000	-19.214	
597.100	-17.524	
597.200	-9.080	
597.300	-18.006	
597.400	-30.691	
597.500	-16.418	
597.600	-14.427	
597.700	-10.347	
597.800	-10.759	
597.900	-33.289	
598.000	-6.799	
598.100	-21.873	
598.200	-12.178	
598.300	-21.954	
598.400	-6.345	
598.500	-10.198	
598.600	-13.828	
598.700	-29.192	
598.800	-15.229	
598.900	-14.200	
599.000	-26.965	
599.100	-16.432	
599.200	-12.829	
599.300	-20.241	
599.400	-7.676	
599.500	-18.809	
599.600	-15.298	
599.700	-18.463	
599.800	0.992	
599.900	-4.368	
600.000	-33.332	
600.100	-10.775	
600.200	-13.020	
600.300	-12.957	
600.400	-21.971	
600.500	-11.002	
600.600	-13.028	
600.700	-8.068	
600.800	-19.718	
600.900	-3.253	
601.000	-11.070	
601.100	-4.314	
601.200	-28.863	
601.300	-24.529	
601.400	-7.994	
601.500	-23.465	
601.600	-17.487	
601.700	-0.805	
601.800	-20.879	
601.900	-17.604	
602.000	-21.225	
602.100	-6.857	
602.200	-26.288	
602.300	-14.058	
602.400	-16.753	
602.500	-16.338	
602.600	-33.740	
602.700	-10.316	
602.800	-15.436	
602.900	-4.825	
603.000	-15.576	
603.100	-23.141	
603.200	-16.920	
603.300	-14.714	
603.400	-21.407	
603.500	-22.139	
603.600	-14.737	
603.700	-22.410	
603.800	-13.146	
603.900	-20.224	
604.000	-20.521	
604.100	1.983	
604.200	6.962	
604.300	-22.298	
604.400	-23.655	
604.500	-9.540	
604.600	-15.513	
604.700	-7.640	
604.800	-11.613	
604.900	-25.353	
605.000	0.778	
605.100	-8.504	
605.200	-28.116	
605.300	-14.771	
605.400	-16.526	
605.500	-12.462	
605.600	-12.908	
605.700	-30.181	
605.800	-11.594	
605.900	-15.545	
606.000	-8.957	
606.100	-16.339	
606.200	-6.814	
606.300	-21.974	
606.400	-8.165	
606.500	-13.679	
606.600	-9.878	
606.700	-20.306	
606.800	-16.943	
606.900	-28.441	
607.000	-1.052	
607.100	-10.233	
607.200	-28.997	
607.300	-9.826	
607.400	-13.890	
607.500	-15.735	
607.600	-28.775	
607.700	-18.879	
607.800	-12.769	
607.900	-0.697	
608.000	-15.187	
608.100	-23.345	
608.200	-18.923	
608.300	-18.174	
608.400	-13.805	
608.500	-17.320	
608.600	-26.072	
608.700	-4.560	
608.800	1.425	
608.900	-18.698	
609.000	-10.058	
609.100	-14.807	
609.200	-5.057	
609.300	-13.648	
609.400	-9.637	
609.500	-10.791	
609.600	-15.654	
609.700	-2.074	
609.800	-13.324	
609.900	-20.782	
610.000	-22.968	
610.100	-7.058	
610.200	-9.272	
610.300	-23.927	
610.400	-7.422	
610.500	-13.097	
610.600	-27.161	
610.700	-4.657	
610.800	-7.792	
610.900	-23.331	
611.000	-10.964	
611.100	-14.607	
611.200	-20.329	
611.300	-10.450	
611.400	-17.857	
611.500	-27.156	
611.600	-10.752	
611.700	-7.078	
611.800	-12.830	
611.900	-11.168	
612.000	-27.622	
612.100	-15.545	
612.200	-5.026	
612.300	-14.063	
612.400	-18.645	
612.500	-22.406	
612.600	-22.689	
612.700	-16.805	
612.800	-2.601	
612.900	-6.614	
613.000	-18.645	
613.100	-14.630	
613.200	-7.191	
613.300	-19.372	
613.400	-11.491	
613.500	-14.606	
613.600	-6.166	
613.700	-13.762	
613.800	-21.485	
613.900	-12.684	
614.000	-26.538	
614.100	-21.999	
614.200	-15.404	
614.300	-4.410	
614.400	-9.870	
614.500	-16.867	
614.600	-3.094	
614.700	-9.555	
614.800	-17.581	
614.900	-0.026	
615.000	-15.650	
615.100	-0.042	
615.200	-2.664	
615.300	-18.171	
615.400	-10.800	
615.500	-11.652	
615.600	-8.318	
615.700	-14.779	
615.800	-7.107	
615.900	-7.327	
616.000	-24.272	
616.100	-17.614	
616.200	-11.425	
616.300	1.146	
616.400	-8.258	
616.500	-12.063	
616.600	-28.014	
616.700	-7.958	
616.800	-3.293	
616.900	-2.306	
617.000	-11.082	
617.100	-2.137	
617.200	-4.075	
617.300	-30.600	
617.400	-3.671	
617.500	-16.258	
617.600	-16.515	
617.700	-9.014	
617.800	-26.870	
617.900	-4.425	
618.000	-20.746	
618.100	-2.475	
618.200	-11.491	
618.300	-18.576	
618.400	-14.434	
618.500	-26.100	
618.600	-6.671	
618.700	-10.169	
618.800	-23.329	
618.900	-21.894	
619.000	-14.024	
619.100	-21.910	
619.200	-16.190	
619.300	-4.453	
619.400	-17.868	
619.500	-20.764	
619.600	-8.016	
619.700	-9.959	
619.800	-12.566	
619.900	-12.281	
620.000	-17.448	
620.100	-11.079	
620.200	-13.985	
620.300	-16.561	
620.400	-8.600	
620.500	-18.377	
620.600	-7.948	
620.700	-17.574	
620.800	-26.335	
620.900	-7.774	
621.000	-13.403	
621.100	-15.979	
621.200	-7.156	
621.300	-11.538	
621.400	-19.337	
621.500	-24.049	
621.600	-15.510	
621.700	-3.873	
621.800	-21.586	
621.900	-1.221	
622.000	-9.349	
622.100	-22.222	
622.200	-17.974	
622.300	-21.088	
622.400	-23.259	
622.500	1.564	
622.600	-11.779	
622.700	-10.264	
622.800	-15.302	
622.900	-9.930	
623.000	-9.904	
623.100	-8.905	
623.200	-22.850	
623.300	-2.816	
623.400	-10.895	
623.500	-11.455	
623.600	0.646	
623.700	-22.358	
623.800	-7.503	
623.900	-20.298	
624.000	-6.275	
624.100	-7.862	
624.200	-16.249	
624.300	-15.516	
624.400	-10.432	
624.500	-7.050	
624.600	-11.490	
624.700	-6.810	
624.800	-9.792	
624.900	-9.357	
625.000	-9.521	
625.100	-12.091	
625.200	-12.580	
625.300	-7.095	
625.400	-8.582	
625.500	-16.368	
625.600	-3.321	
625.700	-28.274	
625.800	7.404	
625.900	-14.600	
626.000	-13.688	
626.100	-12.963	
626.200	-16.949	
626.300	-19.645	
626.400	-14.187	
626.500	-8.523	
626.600	-5.334	
626.700	-21.206	
626.800	-11.125	
626.900	-3.794	
627.000	-10.604	
627.100	1.257	
627.200	-16.090	
627.300	1.292	
627.400	-3.347	
627.500	-24.250	
627.600	-17.667	
627.700	-23.407	
627.800	9.433	
627.900	-11.935	
628.000	-16.605	
628.100	-11.925	
628.200	-0.946	
628.300	-13.900	
628.400	-34.374	
628.500	-6.426	
628.600	-6.143	
628.700	-5.276	
628.800	-18.269	
628.900	-2.199	
629.000	-20.546	
629.100	-13.816	
629.200	-3.405	
629.300	-12.421	
629.400	-3.637	
629.500	-13.356	
629.600	-9.961	
629.700	-20.526	
629.800	-11.935	
629.900	-1.858	
630.000	-8.861	
630.100	-15.360	
630.200	-1.530	
630.300	-11.190	
630.400	0.773	
630.500	12.944	
630.600	5.767	
630.700	35.515	
630.800	23.213	
630.900	12.914	
631.000	49.594	
631.100	22.402	
631.200	42.424	
631.300	39.520	
631.400	28.521	
631.500	50.297	
631.600	48.868	
631.700	38.810	
631.800	34.475	
631.900	40.364	
632.000	28.904	
632.100	29.918	
632.200	34.494	
632.300	58.328	
632.400	40.624	
632.500	31.820	
632.600	29.108	
632.700	44.206	
632.800	32.356	
632.900	33.164	
633.000	40.141	
633.100	24.517	
633.200	30.282	
633.300	34.793	
633.400	31.297	
633.500	38.585	
633.600	29.319	
633.700	27.526	
633.800	22.832	
633.900	30.557	
634.000	35.319	
634.100	37.941	
634.200	24.841	
634.300	39.820	
634.400	20.744	
634.500	12.502	
634.600	29.330	
634.700	22.947	
634.800	11.185	
634.900	33.435	
635.000	35.189	
635.100	15.902	
635.200	22.185	
635.300	25.817	
635.400	23.340	
635.500	21.973	
635.600	43.360	
635.700	37.397	
635.800	37.566	
635.900	26.527	
636.000	28.164	
636.100	37.110	
636.200	28.413	
636.300	36.532	
636.400	30.330	
636.500	17.518	
636.600	34.286	
636.700	38.573	
636.800	31.485	
636.900	27.681	
637.000	43.115	
637.100	26.209	
637.200	29.403	
637.300	42.112	
637.400	26.906	
637.500	10.893	
637.600	47.840	
637.700	37.126	
637.800	40.844	
637.900	27.774	
638.000	48.765	
638.100	24.909	
638.200	37.355	
638.300	23.569	
638.400	44.162	
638.500	25.958	
638.600	40.856	
638.700	45.895	
638.800	42.962	
638.900	41.894	
639.000	45.131	
639.100	40.061	
639.200	55.895	
639.300	32.925	
639.400	44.414	
639.500	42.351	
639.600	48.424	
639.700	39.122	
639.800	46.895	
639.900	45.719	
640.000	47.579	
640.100	46.694	
640.200	46.022	
640.300	39.804	
640.400	27.948	
640.500	59.550	
640.600	55.230	
640.700	52.326	
640.800	34.152	
640.900	56.050	
641.000	40.012	
641.100	49.677	
641.200	39.955	
641.300	35.296	
641.400	38.228	
641.500	44.610	
641.600	49.327	
641.700	58.417	
641.800	56.333	
641.900	37.321	
642.000	52.746	
642.100	53.186	
642.200	40.917	
642.300	35.968	
642.400	49.594	
642.500	56.947	
642.600	45.611	
642.700	47.900	
642.800	57.184	
642.900	43.679	
643.000	50.019	
643.100	53.332	
643.200	51.322	
643.300	67.119	
643.400	37.391	
643.500	51.521	
643.600	50.808	
643.700	46.071	
643.800	54.042	
643.900	61.990	
644.000	48.236	
644.100	43.431	
644.200	57.089	
644.300	42.556	
644.400	48.846	
644.500	44.827	
644.600	47.586	
644.700	52.285	
644.800	46.292	
644.900	48.666	
645.000	56.467	
645.100	56.850	
645.200	49.530	
645.300	61.294	
645.400	51.870	
645.500	46.875	
645.600	64.791	
645.700	55.662	
645.800	54.774	
645.900	46.988	
646.000	46.199	
646.100	45.181	
646.200	65.219	
646.300	53.458	
646.400	51.373	
646.500	36.202	
646.600	54.561	
646.700	55.123	
646.800	60.897	
646.900	38.581	
647.000	50.054	
647.100	50.581	
647.200	51.348	
647.300	37.049	
647.400	44.487	
647.500	64.053	
647.600	58.327	
647.700	43.335	
647.800	56.394	
647.900	43.434	
648.000	65.162	
648.100	58.584	
648.200	50.810	
648.300	42.991	
648.400	60.031	
648.500	52.542	
648.600	74.426	
648.700	41.957	
648.800	52.269	
648.900	44.718	
649.000	55.730	
649.100	53.619	
649.200	54.454	
649.300	51.661	
649.400	39.387	
649.500	47.965	
649.600	58.567	
649.700	50.484	
649.800	64.564	
649.900	58.488	
650.000	63.155	
650.100	46.485	
650.200	43.726	
650.300	73.963	
650.400	45.369	
650.500	54.584	
650.600	51.847	
650.700	39.212	
650.800	52.841	
650.900	58.830	
651.000	50.666	
651.100	50.836	
651.200	35.985	
651.300	50.187	
651.400	45.587	
651.500	76.755	
651.600	55.508	
651.700	55.856	
651.800	50.682	
651.900	62.737	
652.000	61.960	
652.100	63.090	
652.200	58.744	
652.300	58.640	
652.400	55.000	
652.500	45.064	
652.600	61.249	
652.700	52.810	
652.800	63.401	
652.900	49.498	
653.000	59.869	
653.100	53.505	
653.200	54.020	
653.300	52.046	
653.400	49.596	
653.500	52.425	
653.600	47.109	
653.700	45.702	
653.800	48.783	
653.900	48.720	
654.000	61.042	
654.100	49.942	
654.200	60.592	
654.300	56.473	
654.400	48.507	
654.500	55.180	
654.600	53.809	
654.700	39.994	
654.800	56.039	
654.900	54.553	
655.000	39.285	
655.100	56.985	
655.200	39.152	
655.300	39.736	
655.400	54.928	
655.500	37.066	
655.600	56.157	
655.700	25.506	
655.800	57.196	
655.900	66.931	
656.000	52.786	
656.100	56.825	
656.200	57.230	
656.300	55.040	
656.400	50.052	
656.500	48.536	
656.600	60.606	
656.700	54.352	
656.800	49.106	
656.900	55.026	
657.000	51.986	
657.100	47.671	
657.200	55.895	
657.300	41.056	
657.400	60.025	
657.500	53.060	
657.600	57.147	
657.700	48.081	
657.800	48.960	
657.900	42.809	
658.000	50.560	
658.100	59.390	
658.200	60.224	
658.300	47.294	
658.400	51.738	
658.500	54.009	
658.600	57.797	
658.700	62.182	
658.800	39.147	
658.900	59.818	
659.000	53.303	
659.100	47.899	
659.200	49.231	
659.300	43.113	
659.400	58.991	
659.500	50.377	
659.600	26.451	
659.700	46.077	
659.800	43.113	
659.900	39.015	
660.000	57.386	
660.100	60.668	
660.200	44.030	
660.300	45.854	
660.400	55.206	
660.500	58.553	
660.600	37.681	
660.700	50.349	
660.800	49.962	
660.900	55.082	
661.000	49.039	
661.100	35.498	
661.200	58.496	
661.300	44.793	
661.400	50.018	
661.500	60.043	
661.600	51.435	
661.700	54.932	
661.800	48.783	
661.900	39.027	
662.000	48.468	
662.100	58.938	
662.200	51.925	
662.300	59.226	
662.400	48.870	
662.500	40.024	
662.600	55.449	
662.700	48.271	
662.800	49.832	
662.900	50.752	
663.000	55.213	
663.100	49.431	
663.200	56.137	
663.300	50.570	
663.400	59.292	
663.500	58.823	
663.600	47.375	
663.700	45.144	
663.800	53.650	
663.900	51.378	
664.000	45.776	
664.100	56.347	
664.200	44.701	
664.300	45.721	
664.400	34.526	
664.500	47.498	
664.600	47.922	
664.700	42.402	
664.800	52.407	
664.900	54.959	
665.000	50.088	
665.100	44.370	
665.200	41.516	
665.300	49.238	
665.400	53.689	
665.500	48.182	
665.600	39.817	
665.700	34.283	
665.800	59.318	
665.900	40.859	
666.000	44.417	
666.100	69.419	
666.200	68.959	
666.300	38.563	
666.400	51.026	
666.500	44.601	
666.600	52.022	
666.700	56.447	
666.800	42.589	
666.900	51.197	
667.000	55.967	
667.100	59.906	
667.200	52.958	
667.300	52.340	
667.400	42.562	
667.500	42.238	
667.600	43.175	
667.700	34.278	
667.800	65.352	
667.900	33.881	
668.000	47.421	
668.100	59.504	
668.200	57.516	
668.300	60.736	
668.400	36.680	
668.500	49.829	
668.600	42.772	
668.700	51.013	
668.800	49.325	
668.900	51.273	
669.000	37.664	
669.100	63.041	
669.200	42.477	
669.300	54.548	
669.400	57.218	
669.500	55.465	
669.600	35.738	
669.700	55.251	
669.800	52.475	
669.900	33.424	
670.000	56.191	
670.100	58.389	
670.200	43.867	
670.300	43.639	
670.400	59.137	
670.500	43.195	
670.600	55.427	
670.700	43.657	
670.800	36.432	
670.900	46.220	
671.000	56.503	
671.100	51.925	
671.200	39.732	
671.300	50.879	
671.400	40.269	
671.500	54.870	
671.600	39.267	
671.700	53.767	
671.800	52.846	
671.900	58.243	
672.000	59.181	
672.100	51.103	
672.200	57.334	
672.300	47.238	
672.400	39.025	
672.500	48.228	
672.600	48.610	
672.700	41.793	
672.800	57.651	
672.900	55.947	
673.000	55.433	
673.100	42.908	
673.200	53.523	
673.300	53.791	
673.400	32.968	
673.500	43.789	
673.600	49.401	
673.700	53.581	
673.800	36.195	
673.900	38.921	
674.000	53.365	
674.100	46.262	
674.200	48.873	
674.300	47.875	
674.400	49.933	
674.500	39.015	
674.600	51.434	
674.700	52.927	
674.800	32.955	
674.900	49.863	
675.000	35.236	
675.100	52.865	
675.200	52.958	
675.300	58.691	
675.400	44.369	
675.500	34.481	
675.600	49.997	
675.700	38.795	
675.800	44.508	
675.900	59.520	
676.000	39.952	
676.100	44.512	
676.200	50.761	
676.300	50.072	
676.400	47.791	
676.500	55.505	
676.600	61.046	
676.700	46.745	
676.800	51.475	
676.900	40.769	
677.000	52.038	
677.100	48.081	
677.200	59.303	
677.300	46.956	
677.400	46.483	
677.500	63.063	
677.600	44.745	
677.700	60.137	
677.800	50.335	
677.900	41.484	
678.000	50.696	
678.100	35.387	
678.200	49.394	
678.300	45.275	
678.400	44.328	
678.500	51.595	
678.600	40.611	
678.700	50.772	
678.800	60.351	
678.900	44.912	
679.000	50.962	
679.100	52.096	
679.200	44.548	
679.300	51.699	
679.400	53.713	
679.500	34.143	
679.600	44.798	
679.700	52.008	
679.800	50.964	
679.900	54.705	
680.000	52.065	
680.100	59.015	
680.200	44.440	
680.300	52.928	
680.400	55.069	
680.500	38.717	
680.600	48.375	
680.700	50.456	
680.800	47.091	
680.900	51.195	
681.000	47.691	
681.100	40.027	
681.200	53.686	
681.300	44.761	
681.400	44.925	
681.500	46.418	
681.600	64.230	
681.700	29.833	
681.800	46.621	
681.900	53.101	
682.000	32.955	
682.100	59.898	
682.200	47.706	
682.300	52.862	
682.400	29.129	
682.500	54.467	
682.600	38.399	
682.700	52.627	
682.800	49.569	
682.900	36.058	
683.000	52.902	
683.100	56.165	
683.200	44.368	
683.300	49.944	
683.400	47.777	
683.500	51.579	
683.600	54.680	
683.700	45.271	
683.800	39.064	
683.900	56.848	
684.000	49.334	
684.100	40.250	
684.200	41.410	
684.300	54.969	
684.400	46.754	
684.500	38.612	
684.600	36.447	
684.700	46.692	
684.800	53.130	
684.900	37.757	
685.000	36.519	
685.100	57.517	
685.200	47.779	
685.300	44.125	
685.400	44.368	
685.500	43.474	
685.600	49.257	
685.700	46.654	
685.800	48.854	
685.900	53.527	
686.000	56.228	
686.100	36.720	
686.200	42.802	
686.300	52.818	
686.400	49.608	
686.500	35.822	
686.600	46.175	
686.700	43.841	
686.800	43.467	
686.900	54.157	
687.000	59.469	
687.100	35.772	
687.200	46.962	
687.300	46.782	
687.400	35.592	
687.500	56.251	
687.600	50.049	
687.700	49.318	
687.800	46.952	
687.900	46.374	
688.000	55.390	
688.100	50.212	
688.200	40.499	
688.300	59.894	
688.400	36.200	
688.500	56.998	
688.600	31.785	
688.700	50.720	
688.800	44.086	
688.900	28.087	
689.000	55.015	
689.100	32.328	
689.200	40.706	
689.300	52.233	
689.400	41.420	
689.500	32.000	
689.600	44.283	
689.700	56.104	
689.800	42.979	
689.900	52.822	
690.000	55.647	
690.100	51.369	
690.200	50.820	
690.300	45.556	
690.400	42.486	
690.500	29.661	
690.600	43.679	
690.700	40.882	
690.800	27.140	
690.900	8.141	
691.000	21.364	
691.100	22.047	
691.200	11.488	
691.300	-5.950	
691.400	1.443	
691.500	-4.110	
691.600	-5.070	
691.700	-14.980	
691.800	-5.604	
691.900	-21.294	
692.000	-18.430	
692.100	-28.290	
692.200	-23.521	
692.300	-41.364	
692.400	-20.837	
692.500	-23.568	
692.600	-40.345	
692.700	-31.992	
692.800	-33.867	
692.900	-48.681	
693.000	-33.607	
693.100	-32.228	
693.200	-37.998	
693.300	-20.071	
693.400	-41.182	
693.500	-36.146	
693.600	-40.240	
693.700	-42.233	
693.800	-23.267	
693.900	-43.848	
694.000	-32.555	
694.100	-45.849	
694.200	-33.175	
694.300	-32.232	
694.400	-42.570	
694.500	-53.272	
694.600	-24.054	
694.700	-39.653	
694.800	-35.847	
694.900	-30.542	
695.000	-31.884	
695.100	-39.960	
695.200	-23.696	
695.300	-40.015	
695.400	-38.725	
695.500	-31.385	
695.600	-47.101	
695.700	-27.588	
695.800	-29.906	
695.900	-56.147	
696.000	-38.502	
696.100	-38.754	
696.200	-36.230	
696.300	-49.850	
696.400	-46.212	
696.500	-24.661	
696.600	-37.789	
696.700	-47.941	
696.800	-32.476	
696.900	-23.513	
697.000	-43.719	
697.100	-28.021	
697.200	-25.010	
697.300	-46.258	
697.400	-42.649	
697.500	-26.542	
697.600	-39.907	
697.700	-40.012	
697.800	-37.235	
697.900	-32.618	
698.000	-36.898	
698.100	-44.397	
698.200	-32.117	
698.300	-43.444	
698.400	-30.215	
698.500	-37.646	
698.600	-24.904	
698.700	-49.891	
698.800	-41.593	
698.900	-36.564	
699.000	-51.177	
699.100	-23.165	
699.200	-45.242	
699.300	-26.806	
699.400	-35.578	
699.500	-39.969	
699.600	-37.856	
699.700	-31.895	
699.800	-33.923	
699.900	-37.885	
700.000	-34.968	
700.100	-37.766	
700.200	-48.185	
700.300	-32.673	
700.400	-32.404	
700.500	-36.488	
700.600	-42.281	
700.700	-37.084	
700.800	-31.628	
700.900	-23.211	
701.000	-38.003	
701.100	-47.242	
701.200	-32.878	
701.300	-36.440	
701.400	-40.222	
701.500	-34.563	
701.600	-45.879	
701.700	-22.748	
701.800	-32.196	
701.900	-38.706	
702.000	-36.102	
702.100	-24.998	
702.200	-41.978	
702.300	-34.374	
702.400	-30.677	
702.500	-30.752	
702.600	-29.395	
702.700	-35.906	
702.800	-27.708	
702.900	-41.448	
703.000	-34.707	
703.100	-29.574	
703.200	-54.756	
703.300	-33.015	
703.400	-39.580	
703.500	-30.310	
703.600	-44.539	
703.700	-40.953	
703.800	-26.569	
703.900	-21.362	
704.000	-41.343	
704.100	-41.030	
704.200	-37.592	
704.300	-25.963	
704.400	-32.682	
704.500	-31.144	
704.600	-39.934	
704.700	-27.203	
704.800	-39.978	
704.900	-31.101	
705.000	-24.476	
705.100	-31.777	
705.200	-34.575	
705.300	-43.198	
705.400	-31.554	
705.500	-26.375	
705.600	-25.821	
705.700	-35.836	
705.800	-37.085	
705.900	-41.856	
706.000	-39.292	
706.100	-40.916	
706.200	-27.952	
706.300	-26.862	
706.400	-42.014	
706.500	-17.388	
706.600	-35.238	
706.700	-28.698	
706.800	-54.719	
706.900	-30.376	
707.000	-30.293	
707.100	-39.630	
707.200	-37.477	
707.300	-36.971	
707.400	-35.539	
707.500	-33.203	
707.600	-28.144	
707.700	-25.712	
707.800	-27.599	
707.900	-32.794	
708.000	-21.145	
708.100	-47.798	
708.200	-8.420	
708.300	-40.016	
708.400	-29.507	
708.500	-25.124	
708.600	-38.569	
708.700	-30.413	
708.800	-43.692	
708.900	-28.854	
709.000	-44.006	
709.100	-33.072	
709.200	-24.906	
709.300	-37.447	
709.400	-21.119	
709.500	-38.224	
709.600	-42.399	
709.700	-26.168	
709.800	-32.882	
709.900	-42.539	
710.000	-40.657	
710.100	-37.012	
710.200	-31.874	
710.300	-24.144	
710.400	-38.411	
710.500	-34.719	
710.600	-27.037	
710.700	-34.759	
710.800	-29.271	
710.900	-28.259	
711.000	-36.409	
711.100	-40.270	
711.200	-11.385	
711.300	-31.419	
711.400	-25.729	
711.500	-38.840	
711.600	-25.689	
711.700	-29.129	
711.800	-25.762	
711.900	-31.239	
712.000	-19.144	
712.100	-35.851	
712.200	-33.425	
712.300	-37.260	
712.400	-21.693	
712.500	-26.058	
712.600	-33.178	
712.700	-24.652	
712.800	-40.180	
712.900	-21.766	
713.000	-32.243	
713.100	-18.980	
713.200	-19.005	
713.300	-28.502	
713.400	-22.206	
713.500	-21.393	
713.600	-31.246	
713.700	-22.139	
713.800	-30.376	
713.900	-22.483	
714.000	-36.470	
714.100	-7.782	
714.200	-30.431	
714.300	-39.329	
714.400	-40.177	
714.500	-17.971	
714.600	-13.728	
714.700	-26.107	
714.800	-48.722	
714.900	-26.838	
715.000	-24.781	
715.100	-45.701	
715.200	-7.752	
715.300	-36.321	
715.400	-20.043	
715.500	-33.586	
715.600	-25.218	
715.700	-30.278	
715.800	-22.628	
715.900	-9.235	
716.000	-32.350	
716.100	-32.453	
716.200	-15.886	
716.300	-26.276	
716.400	-17.863	
716.500	-27.259	
716.600	-26.493	
716.700	-29.561	
716.800	-15.525	
716.900	-24.634	
717.000	-25.023	
717.100	-41.253	
717.200	-29.186	
717.300	-22.127	
717.400	-20.109	
717.500	-25.360	
717.600	-25.431	
717.700	-29.267	
717.800	-17.455	
717.900	-25.275	
718.000	-15.939	
718.100	-26.117	
718.200	-19.458	
718.300	-23.958	
718.400	-25.921	
718.500	-20.151	
718.600	-36.166	
718.700	-25.603	
718.800	-11.678	
718.900	-19.591	
719.000	-25.472	
719.100	-20.964	
719.200	-32.155	
719.300	-18.966	
719.400	-8.773	
719.500	-27.274	
719.600	-29.683	
719.700	-18.799	
719.800	-22.381	
719.900	-26.736	
720.000	-35.035	
720.100	-21.803	
720.200	-16.839	
720.300	-41.651	
720.400	-30.638	
720.500	-11.838	
720.600	-27.243	
720.700	-11.524	
720.800	-25.157	
720.900	-25.927	
721.000	-10.647	
721.100	-34.855	
721.200	-11.672	
721.300	-28.557	
721.400	-31.019	
721.500	-39.300	
721.600	-22.532	
721.700	-11.669	
721.800	-36.379	
721.900	-14.375	
722.000	-20.712	
722.100	-32.576	
722.200	-26.863	
722.300	-35.765	
722.400	-19.554	
722.500	-15.939	
722.600	-28.858	
722.700	-13.062	
722.800	-19.264	
722.900	-29.537	
723.000	-16.979	
723.100	-23.973	
723.200	-21.499	
723.300	-8.926	
723.400	-24.890	
723.500	-16.673	
723.600	-23.498	
723.700	-19.884	
723.800	-27.171	
723.900	-19.605	
724.000	-35.581	
724.100	-20.084	
724.200	-20.674	
724.300	-40.281	
724.400	-24.163	
724.500	-10.099	
724.600	-19.744	
724.700	-9.605	
724.800	-21.653	
724.900	-38.767	
725.000	-26.183	
725.100	-33.890	
725.200	-13.749	
725.300	-15.036	
725.400	-27.962	
725.500	-13.305	
725.600	-23.953	
725.700	-11.105	
725.800	-43.005	
725.900	-33.175	
726.000	-7.813	
726.100	-24.339	
726.200	-26.478	
726.300	-32.449	
726.400	-22.821	
726.500	-20.007	
726.600	-29.095	
726.700	-17.990	
726.800	-26.366	
726.900	-29.146	
727.000	-36.016	
727.100	-12.374	
727.200	-37.269	
727.300	-8.596	
727.400	-24.834	
727.500	-16.287	
727.600	-14.354	
727.700	-13.088	
727.800	-27.898	
727.900	-30.203	
728.000	-23.490	
728.100	-22.310	
728.200	-27.304	
728.300	-24.151	
728.400	-32.075	
728.500	-22.866	
728.600	-19.256	
728.700	-24.284	
728.800	-19.120	
728.900	-6.346	
729.000	-24.120	
729.100	-24.246	
729.200	-15.913	
729.300	-9.641	
729.400	-39.210	
729.500	-34.273	
729.600	-10.838	
729.700	-26.753	
729.800	-20.371	
729.900	-31.474	
730.000	-31.056	
730.100	-30.248	
730.200	-16.620	
730.300	-10.603	
730.400	-18.959	
730.500	-25.138	
730.600	-29.303	
730.700	-15.800	
730.800	-21.434	
730.900	-22.052	
731.000	-35.170	
731.100	-20.392	
731.200	-18.934	
731.300	-14.516	
731.400	-20.610	
731.500	-36.491	
731.600	-12.385	
731.700	-21.708	
731.800	-30.218	
731.900	-16.672	
732.000	-18.244	
732.100	-18.641	
732.200	-19.988	
732.300	-18.842	
732.400	-24.401	
732.500	-23.249	
732.600	-31.321	
732.700	-23.575	
732.800	-19.802	
732.900	-19.201	
733.000	-20.072	
733.100	-19.409	
733.200	-16.333	
733.300	-32.664	
733.400	-15.376	
733.500	-24.700	
733.600	-32.507	
733.700	-10.990	
733.800	-13.904	
733.900	-30.313	
734.000	-15.155	
734.100	-14.530	
734.200	-23.269	
734.300	-20.398	
734.400	-7.312	
734.500	-24.066	
734.600	-17.328	
734.700	-23.660	
734.800	-25.886	
734.900	-23.347	
735.000	-35.471	
735.100	-14.465	
735.200	-8.692	
735.300	-22.298	
735.400	-16.928	
735.500	-23.678	
735.600	-29.459	
735.700	-7.564	
735.800	-33.693	
735.900	-26.228	
736.000	-11.556	
736.100	-16.070	
736.200	-20.488	
736.300	-16.187	
736.400	-24.898	
736.500	-12.215	
736.600	-22.265	
736.700	-20.823	
736.800	-16.764	
736.900	-38.703	
737.000	-27.685	
737.100	-12.875	
737.200	-15.534	
737.300	-16.632	
737.400	-10.424	
737.500	-27.643	
737.600	-7.954	
737.700	-15.483	
737.800	-24.855	
737.900	-19.177	
738.000	-22.275	
738.100	-10.342	
738.200	-16.492	
738.300	-31.917	
738.400	-10.062	
738.500	-33.204	
738.600	-13.880	
738.700	-7.177	
738.800	-18.217	
738.900	-8.260	
739.000	-25.682	
739.100	-23.257	
739.200	-14.079	
739.300	-21.474	
739.400	-25.301	
739.500	-12.538	
739.600	-18.174	
739.700	-28.435	
739.800	-15.365	
739.900	-16.391	
740.000	-35.905	
740.100	-11.504	
740.200	-14.062	
740.300	-25.220	
740.400	-20.532	
740.500	-19.148	
740.600	-17.750	
740.700	-18.223	
740.800	-15.268	
740.900	-13.149	
741.000	-26.252	
741.100	-34.482	
741.200	-20.275	
741.300	-11.099	
741.400	-12.665	
741.500	-10.829	
741.600	-10.789	
741.700	-15.801	
741.800	-17.590	
741.900	-4.607	
742.000	-23.979	
742.100	-30.914	
742.200	-14.596	
742.300	-15.863	
742.400	-16.312	
742.500	-10.222	
742.600	-23.553	
742.700	-16.546	
742.800	-19.564	
742.900	-21.687	
743.000	-11.662	
743.100	-28.184	
743.200	-16.165	
743.300	-18.237	
743.400	-12.876	
743.500	-30.488	
743.600	-1.169	
743.700	-17.262	
743.800	-22.371	
743.900	-27.287	
744.000	-12.129	
744.100	-11.355	
744.200	-17.339	
744.300	-11.825	
744.400	-25.548	
744.500	-9.152	
744.600	-10.299	
744.700	-16.409	
744.800	-21.372	
744.900	-27.098	
745.000	-22.836	
745.100	-16.591	
745.200	-16.921	
745.300	-12.262	
745.400	-19.101	
745.500	-24.280	
745.600	-3.038	
745.700	-28.676	
745.800	-18.815	
745.900	-10.319	
746.000	-24.689	
746.100	-34.462	
746.200	-6.959	
746.300	-13.135	
746.400	-14.520	
746.500	-32.590	
746.600	-13.937	
746.700	-11.963	
746.800	-4.876	
746.900	-19.749	
747.000	-5.867	
747.100	-11.872	
747.200	-11.566	
747.300	-14.715	
747.400	-25.733	
747.500	-7.456	
747.600	-15.894	
747.700	-2.353	
747.800	-11.551	
747.900	-15.184	
748.000	-21.892	
748.100	-12.008	
748.200	-12.764	
748.300	-40.538	
748.400	-26.134	
748.500	-14.763	
748.600	-31.817	
748.700	-11.028	
748.800	-15.145	
748.900	-32.078	
749.000	-30.323	
749.100	-10.234	
749.200	-21.379	
749.300	-6.761	
749.400	-21.249	
749.500	-13.058	
749.600	-9.479	
749.700	-22.448	
749.800	-11.777	
749.900	-16.331	
750.000	-21.264	
750.100	-12.189	
750.200	-15.202	
750.300	-14.768	
750.400	-20.532	
750.500	-24.711	
750.600	-17.781	
750.700	-28.793	
750.800	-15.973	
750.900	-28.412	
751.000	-15.166	
751.100	-20.248	
751.200	-17.846	
751.300	-23.894	
751.400	-6.699	
751.500	-5.554	
751.600	-19.768	
751.700	-19.929	
751.800	-10.347	
751.900	-18.840	
752.000	-8.898	
752.100	-9.877	
752.200	-11.451	
752.300	-15.184	
752.400	-7.653	
752.500	-25.908	
752.600	-1.756	
752.700	-30.968	
752.800	-20.330	
752.900	-13.523	
753.000	-10.407	
753.100	-14.193	
753.200	-21.730	
753.300	-9.432	
753.400	-18.718	
753.500	-23.887	
753.600	-20.694	
753.700	-17.740	
753.800	-20.292	
753.900	-18.581	
754.000	-25.166	
754.100	-3.421	
754.200	-13.773	
754.300	-12.260	
754.400	-17.438	
754.500	-15.442	
754.600	-11.928	
754.700	-29.359	
754.800	-28.301	
754.900	-10.112	
755.000	-9.295	
755.100	-4.917	
755.200	-34.055	
755.300	-20.507	
755.400	-11.520	
755.500	-9.021	
755.600	-27.774	
755.700	-7.380	
755.800	-18.606	
755.900	-24.221	
756.000	-6.582	
756.100	-11.697	
756.200	-17.096	
756.300	-19.313	
756.400	-18.718	
756.500	-15.642	
756.600	-8.792	
756.700	-0.536	
756.800	-22.225	
756.900	-7.812	
757.000	-11.016	
757.100	-8.551	
757.200	-12.315	
757.300	-5.879	
757.400	-7.568	
757.500	-4.305	
757.600	-22.599	
757.700	-16.213	
757.800	-11.971	
757.900	-14.968	
758.000	-19.149	
758.100	-13.797	
758.200	-6.967	
758.300	-21.504	
758.400	-13.710	
758.500	-9.556	
758.600	-27.982	
758.700	-10.690	
758.800	-19.136	
758.900	-15.007	
759.000	-28.981	
759.100	-8.051	
759.200	-11.482	
759.300	-15.587	
759.400	-11.413	
759.500	-24.310	
759.600	-15.744	
759.700	-13.027	
759.800	-16.150	
759.900	-13.209	
760.000	-9.269	
760.100	-14.751	
760.200	-7.152	
760.300	-6.068	
760.400	-9.091	
760.500	-33.821	
760.600	-30.910	
760.700	-4.385	
760.800	-6.853	
760.900	-12.409	
761.000	-8.269	
761.100	-15.530	
761.200	-18.684	
761.300	-6.004	
761.400	-17.197	
761.500	-14.390	
761.600	-23.955	
761.700	-22.974	
761.800	-8.817	
761.900	-22.347	
762.000	-4.220	
762.100	-13.937	
762.200	0.733	
762.300	-16.883	
762.400	-17.236	
762.500	-23.363	
762.600	-13.382	
762.700	-24.575	
762.800	-21.478	
762.900	-27.081	
763.000	1.747	
763.100	-22.347	
763.200	-7.013	
763.300	-4.710	
763.400	-11.475	
763.500	-25.104	
763.600	-1.334	
763.700	-7.954	
763.800	-11.716	
763.900	-22.850	
764.000	-8.051	
764.100	-33.372	
764.200	-11.803	
764.300	-12.660	
764.400	-2.674	
764.500	-15.159	
764.600	-6.152	
764.700	-10.913	
764.800	-14.230	
764.900	-21.780	
765.000	-24.116	
765.100	-14.237	
765.200	-9.734	
765.300	-5.940	
765.400	-20.239	
765.500	-22.374	
765.600	-9.774	
765.700	9.161	
765.800	-15.658	
765.900	-18.387	
766.000	-20.555	
766.100	-16.651	
766.200	-5.681	
766.300	-7.974	
766.400	-16.157	
766.500	-27.636	
766.600	-2.425	
766.700	-13.940	
766.800	-20.536	
766.900	-13.737	
767.000	-6.607	
767.100	-17.692	
767.200	-7.174	
767.300	-11.471	
767.400	-15.011	
767.500	-14.660	
767.600	-4.440	
767.700	-15.680	
767.800	-10.637	
767.900	-9.883	
768.000	-15.158	
768.100	-13.606	
768.200	-7.607	
768.300	-20.327	
768.400	-7.537	
768.500	-16.348	
768.600	-4.163	
768.700	-29.850	
768.800	-14.647	
768.900	-7.116	
769.000	-22.044	
769.100	-17.785	
769.200	1.151	
769.300	-8.443	
769.400	-11.267	
769.500	-0.632	
769.600	-26.371	
769.700	-28.175	
769.800	-9.161	
769.900	-8.394	
770.000	-4.068	
770.100	-13.633	
770.200	-11.433	
770.300	-15.854	
770.400	-20.769	
770.500	-19.885	
770.600	-8.160	
770.700	-24.161	
770.800	-8.062	
770.900	-13.014	
771.000	-17.222	
771.100	-17.172	
771.200	-11.684	
771.300	-18.200	
771.400	-8.172	
771.500	-16.362	
771.600	-10.056	
771.700	-5.559	
771.800	-4.769	
771.900	-16.405	
772.000	-1.731	
772.100	-3.200	
772.200	-8.765	
772.300	-15.998	
772.400	-14.468	
772.500	-18.629	
772.600	-13.413	
772.700	-9.725	
772.800	-10.758	
772.900	-18.012	
773.000	-18.774	
773.100	-16.681	
773.200	-12.608	
773.300	-7.026	
773.400	-16.485	
773.500	-14.551	
773.600	-15.265	
773.700	-21.788	
773.800	-16.361	
773.900	-15.792	
774.000	-14.592	
774.100	-5.528	
774.200	3.732	
774.300	-15.332	
774.400	-15.085	
774.500	-8.577	
774.600	-14.295	
774.700	-11.124	
774.800	-13.776	
774.900	-9.254	
775.000	-28.882	
775.100	3.765	
775.200	-4.021	
775.300	-17.713	
775.400	-16.685	
775.500	-14.400	
775.600	-21.074	
775.700	3.249	
775.800	-15.113	
775.900	-5.520	
776.000	-10.428	
776.100	-27.676	
776.200	-11.437	
776.300	-17.206	
776.400	-12.116	
776.500	-16.393	
776.600	-0.020	
776.700	-20.939	
776.800	-13.859	
776.900	-14.672	
777.000	-11.638	
777.100	-5.241	
777.200	-5.611	
777.300	-19.858	
777.400	-13.519	
777.500	-11.854	
777.600	-15.597	
777.700	-4.338	
777.800	-9.366	
777.900	-21.839	
778.000	-23.745	
778.100	11.049	
778.200	-12.177	
778.300	-13.749	
778.400	-9.487	
778.500	5.883	
778.600	-25.562	
778.700	-8.651	
778.800	-21.663	
778.900	-13.450	
779.000	-15.026	
779.100	-11.990	
779.200	-23.279	
779.300	-3.637	
779.400	-17.427	
779.500	-16.809	
779.600	-15.966	
779.700	-16.840	
779.800	-16.784	
779.900	-3.110	
780.000	-14.767	
780.100	-14.359	
780.200	-20.968	
780.300	-8.305	
780.400	16.531	
780.500	-8.391	
780.600	34.234	
780.700	20.755	
780.800	12.285	
780.900	34.265	
781.000	25.320	
781.100	30.365	
781.200	35.122	
781.300	37.227	
781.400	32.684	
781.500	42.933	
781.600	32.843	
781.700	31.278	
781.800	47.247	
781.900	35.397	
782.000	31.779	
782.100	37.403	
782.200	34.844	
782.300	35.925	
782.400	45.179	
782.500	27.353	
782.600	40.201	
782.700	24.870	
782.800	37.681	
782.900	51.168	
783.000	43.259	
783.100	37.161	
783.200	30.389	
783.300	37.620	
783.400	32.966	
783.500	27.827	
783.600	27.195	
783.700	39.734	
783.800	29.274	
783.900	12.197	
784.000	37.631	
784.100	19.044	
784.200	38.579	
784.300	28.879	
784.400	34.482	
784.500	26.847	
784.600	29.736	
784.700	23.358	
784.800	26.068	
784.900	26.966	
785.000	26.339	
785.100	39.044	
785.200	17.689	
785.300	27.954	
785.400	24.435	
785.500	34.390	
785.600	34.588	
785.700	24.842	
785.800	24.046	
785.900	25.603	
786.000	29.640	
786.100	14.524	
786.200	18.692	
786.300	34.855	
786.400	28.897	
786.500	32.031	
786.600	35.704	
786.700	27.748	
786.800	29.731	
786.900	18.081	
787.000	54.434	
787.100	32.432	
787.200	23.338	
787.300	41.595	
787.400	24.714	
787.500	37.146	
787.600	42.867	
787.700	28.858	
787.800	29.341	
787.900	26.544	
788.000	43.259	
788.100	39.678	
788.200	46.012	
788.300	31.766	
788.400	29.565	
788.500	41.701	
788.600	37.109	
788.700	42.299	
788.800	44.384	
788.900	45.731	
789.000	30.284	
789.100	39.640	
789.200	44.974	
789.300	51.111	
789.400	41.159	
789.500	53.444	
789.600	31.144	
789.700	37.734	
789.800	42.205	
789.900	47.213	
790.000	43.646	
790.100	55.605	
790.200	37.366	
790.300	43.305	
790.400	39.786	
790.500	52.019	
790.600	50.868	
790.700	37.714	
790.800	60.435	
790.900	47.340	
791.000	50.472	
791.100	51.353	
791.200	51.926	
791.300	43.525	
791.400	52.197	
791.500	53.455	
791.600	48.942	
791.700	22.639	
791.800	33.315	
791.900	54.443	
792.000	52.224	
792.100	37.823	
792.200	39.353	
792.300	54.394	
792.400	47.605	
792.500	52.483	
792.600	37.067	
792.700	60.339	
792.800	38.747	
792.900	48.168	
793.000	57.441	
793.100	54.193	
793.200	42.845	
793.300	65.211	
793.400	45.915	
793.500	54.016	
793.600	55.975	
793.700	45.544	
793.800	56.143	
793.900	38.276	
794.000	53.579	
794.100	41.329	
794.200	49.124	
794.300	58.206	
794.400	60.966	
794.500	62.618	
794.600	54.746	
794.700	48.339	
794.800	56.754	
794.900	49.411	
795.000	55.547	
795.100	44.837	
795.200	52.341	
795.300	54.831	
795.400	42.182	
795.500	54.419	
795.600	65.737	
795.700	49.232	
795.800	51.062	
795.900	56.861	
796.000	49.967	
796.100	46.009	
796.200	50.149	
796.300	58.808	
796.400	42.732	
796.500	44.613	
796.600	72.363	
796.700	35.438	
796.800	49.345	
796.900	60.360	
797.000	44.827	
797.100	54.107	
797.200	55.166	
797.300	55.410	
797.400	51.689	
797.500	51.591	
797.600	61.327	
797.700	49.879	
797.800	47.790	
797.900	51.630	
798.000	60.522	
798.100	49.150	
798.200	63.834	
798.300	41.963	
798.400	49.741	
798.500	60.272	
798.600	53.741	
798.700	65.604	
798.800	40.261	
798.900	63.696	
799.000	46.692	
799.100	57.303	
799.200	49.754	
799.300	50.340	
799.400	53.131	
799.500	49.732	
799.600	58.900	
799.700	46.878	
799.800	57.326	
799.900	37.439	
800.000	62.744	
