time /s	I /nA	
0.100	1.723	
0.200	-2.491	
0.300	-12.322	
0.400	2.990	
0.500	3.319	
0.600	-4.134	
0.700	-6.078	
0.800	-17.564	
0.900	-24.951	
1.000	5.916	
1.100	3.008	
1.200	-3.043	
1.300	-19.887	
1.400	-1.994	
1.500	-7.403	
1.600	-5.806	
1.700	0.849	
1.800	-3.089	
1.900	4.201	
2.000	-21.000	
2.100	-12.355	
2.200	-5.977	
2.300	-12.328	
2.400	-15.334	
2.500	1.890	
2.600	-7.740	
2.700	-11.749	
2.800	-3.767	
2.900	-16.594	
3.000	-4.515	
3.100	-7.723	
3.200	-11.813	
3.300	-0.899	
3.400	-12.815	
3.500	-13.331	
3.600	8.055	
3.700	-2.136	
3.800	11.678	
3.900	-4.482	
4.000	-32.102	
4.100	-6.161	
4.200	-13.823	
4.300	10.594	
4.400	-5.890	
4.500	-10.185	
4.600	-5.133	
4.700	-12.180	
4.800	-10.932	
4.900	-16.657	
5.000	-0.442	
5.100	-8.423	
5.200	-24.902	
5.300	-4.058	
5.400	-10.863	
5.500	-11.664	
5.600	-15.123	
5.700	-1.667	
5.800	-11.026	
5.900	0.032	
6.000	-16.716	
6.100	-25.336	
6.200	8.525	
6.300	-3.831	
6.400	-3.785	
6.500	-9.880	
6.600	-6.644	
6.700	-19.717	
6.800	-6.079	
6.900	-3.757	
7.000	-1.578	
7.100	-25.580	
7.200	-1.481	
7.300	1.763	
7.400	-20.295	
7.500	0.634	
7.600	2.417	
7.700	-9.322	
7.800	-3.653	
7.900	-12.060	
8.000	-9.277	
8.100	-17.228	
8.200	-8.473	
8.300	-12.995	
8.400	3.297	
8.500	-11.148	
8.600	-11.784	
8.700	5.489	
8.800	-4.357	
8.900	-16.409	
9.000	1.045	
9.100	-19.152	
9.200	-10.705	
9.300	-11.754	
9.400	-2.399	
9.500	-3.909	
9.600	-21.471	
9.700	-13.161	
9.800	-3.862	
9.900	6.179	
10.000	-9.634	
10.100	-7.325	
10.200	-4.723	
10.300	-8.304	
10.400	-8.034	
10.500	-7.044	
10.600	-13.410	
10.700	-2.963	
10.800	-4.716	
10.900	-8.648	
11.000	1.571	
11.100	-21.127	
11.200	-6.716	
11.300	-5.658	
11.400	-9.117	
11.500	-0.435	
11.600	-7.153	
11.700	-11.106	
11.800	-2.278	
11.900	1.216	
12.000	-21.704	
12.100	-5.611	
12.200	-2.218	
12.300	-27.704	
12.400	4.638	
12.500	4.371	
12.600	-13.658	
12.700	-2.698	
12.800	-0.111	
12.900	-8.827	
13.000	-14.947	
13.100	-2.525	
13.200	3.166	
13.300	-5.097	
13.400	1.087	
13.500	-5.505	
13.600	-4.465	
13.700	-19.484	
13.800	-2.656	
13.900	-10.544	
14.000	-2.681	
14.100	-9.700	
14.200	-9.743	
14.300	-10.213	
14.400	4.399	
14.500	-8.434	
14.600	1.075	
14.700	-7.350	
14.800	-9.578	
14.900	3.837	
15.000	-9.413	
15.100	-18.982	
15.200	-6.891	
15.300	-1.435	
15.400	6.057	
15.500	-9.182	
15.600	-17.136	
15.700	6.513	
15.800	-3.289	
15.900	-3.157	
16.000	-14.775	
16.100	-8.349	
16.200	-7.848	
16.300	-18.097	
16.400	2.354	
16.500	-11.835	
16.600	-13.942	
16.700	-3.328	
16.800	-3.075	
16.900	3.196	
17.000	-18.504	
17.100	-7.564	
17.200	-18.692	
17.300	-4.561	
17.400	-8.019	
17.500	5.969	
17.600	-6.267	
17.700	-25.622	
17.800	5.098	
17.900	-17.171	
18.000	-12.189	
18.100	-10.380	
18.200	-1.674	
18.300	-10.050	
18.400	-9.368	
18.500	2.394	
18.600	5.246	
18.700	-1.344	
18.800	4.905	
18.900	-16.139	
19.000	-3.195	
19.100	-10.852	
19.200	-16.821	
19.300	-3.681	
19.400	-16.012	
19.500	5.904	
19.600	1.480	
19.700	5.303	
19.800	-5.062	
19.900	-15.860	
20.000	-2.737	
20.100	-7.682	
20.200	-9.134	
20.300	-7.216	
20.400	-0.771	
20.500	-9.977	
20.600	-10.697	
20.700	-25.990	
20.800	-4.608	
20.900	-2.047	
21.000	-0.535	
21.100	-4.734	
21.200	-4.810	
21.300	-6.429	
21.400	-16.471	
21.500	-8.910	
21.600	-11.816	
21.700	-6.214	
21.800	1.753	
21.900	-12.803	
22.000	-13.391	
22.100	-9.623	
22.200	-3.093	
22.300	4.611	
22.400	-11.982	
22.500	-7.287	
22.600	-5.060	
22.700	6.696	
22.800	-4.598	
22.900	-19.498	
23.000	-6.582	
23.100	2.937	
23.200	-11.472	
23.300	3.521	
23.400	-5.589	
23.500	-13.151	
23.600	-9.577	
23.700	-16.469	
23.800	4.948	
23.900	-8.413	
24.000	4.259	
24.100	-24.912	
24.200	6.206	
24.300	-11.359	
24.400	-6.368	
24.500	-8.057	
24.600	0.401	
24.700	-1.010	
24.800	3.850	
24.900	-7.221	
25.000	0.897	
25.100	-2.540	
25.200	-12.393	
25.300	-5.865	
25.400	-5.401	
25.500	-17.854	
25.600	-2.814	
25.700	-5.256	
25.800	2.341	
25.900	-20.960	
26.000	-6.721	
26.100	-0.353	
26.200	-17.935	
26.300	5.109	
26.400	-8.637	
26.500	-9.432	
26.600	-3.706	
26.700	-6.353	
26.800	-4.713	
26.900	-10.174	
27.000	-2.351	
27.100	4.012	
27.200	-4.213	
27.300	-12.171	
27.400	-8.562	
27.500	-4.458	
27.600	-12.690	
27.700	-6.694	
27.800	-0.762	
27.900	-10.919	
28.000	-0.881	
28.100	3.163	
28.200	-14.665	
28.300	-14.960	
28.400	-9.239	
28.500	-4.826	
28.600	-4.583	
28.700	-13.849	
28.800	-11.541	
28.900	-6.554	
29.000	-14.790	
29.100	1.976	
29.200	-15.870	
29.300	3.638	
29.400	-16.243	
29.500	-12.470	
29.600	2.479	
29.700	-4.550	
29.800	-11.363	
29.900	-11.528	
30.000	-2.533	
30.100	-22.829	
30.200	-20.711	
30.300	-5.002	
30.400	14.841	
30.500	12.441	
30.600	20.575	
30.700	31.004	
30.800	27.822	
30.900	27.342	
31.000	37.242	
31.100	44.193	
31.200	46.819	
31.300	37.650	
31.400	26.869	
31.500	31.253	
31.600	48.490	
31.700	45.846	
31.800	36.064	
31.900	34.877	
32.000	49.392	
32.100	42.246	
32.200	37.587	
32.300	42.024	
32.400	45.072	
32.500	46.638	
32.600	38.500	
32.700	23.645	
32.800	45.284	
32.900	31.087	
33.000	26.804	
33.100	46.070	
33.200	37.186	
33.300	20.455	
33.400	37.808	
33.500	25.684	
33.600	42.717	
33.700	34.358	
33.800	20.346	
33.900	36.638	
34.000	28.522	
34.100	32.686	
34.200	28.612	
34.300	40.245	
34.400	31.781	
34.500	23.487	
34.600	26.719	
34.700	27.786	
34.800	35.860	
34.900	21.518	
35.000	35.934	
35.100	34.250	
35.200	36.449	
35.300	31.988	
35.400	23.737	
35.500	41.828	
35.600	37.269	
35.700	26.963	
35.800	27.575	
35.900	30.534	
36.000	32.394	
36.100	34.725	
36.200	39.657	
36.300	26.137	
36.400	23.171	
36.500	40.993	
36.600	43.673	
36.700	31.870	
36.800	34.557	
36.900	33.727	
37.000	24.473	
37.100	37.292	
37.200	36.210	
37.300	32.757	
37.400	24.481	
37.500	21.773	
37.600	28.786	
37.700	42.991	
37.800	27.190	
37.900	33.140	
38.000	42.995	
38.100	37.822	
38.200	28.443	
38.300	43.030	
38.400	36.887	
38.500	27.597	
38.600	37.064	
38.700	49.936	
38.800	36.945	
38.900	20.732	
39.000	52.614	
39.100	25.139	
39.200	38.753	
39.300	36.055	
39.400	46.021	
39.500	44.284	
39.600	39.557	
39.700	34.726	
39.800	27.061	
39.900	46.873	
40.000	40.133	
40.100	50.651	
40.200	37.510	
40.300	21.289	
40.400	43.319	
40.500	39.186	
40.600	40.254	
40.700	36.033	
40.800	46.820	
40.900	19.658	
41.000	57.268	
41.100	50.499	
41.200	19.906	
41.300	52.275	
41.400	36.479	
41.500	44.949	
41.600	53.105	
41.700	26.305	
41.800	53.205	
41.900	34.858	
42.000	40.728	
42.100	48.094	
42.200	46.290	
42.300	31.768	
42.400	35.763	
42.500	40.109	
42.600	44.061	
42.700	52.292	
42.800	48.283	
42.900	41.062	
43.000	38.509	
43.100	55.344	
43.200	45.491	
43.300	44.677	
43.400	50.087	
43.500	49.523	
43.600	56.167	
43.700	37.823	
43.800	27.332	
43.900	34.748	
44.000	42.085	
44.100	41.557	
44.200	43.110	
44.300	46.115	
44.400	41.940	
44.500	51.956	
44.600	42.674	
44.700	41.830	
44.800	43.943	
44.900	43.388	
45.000	50.352	
45.100	54.073	
45.200	39.879	
45.300	50.799	
45.400	55.286	
45.500	44.238	
45.600	44.898	
45.700	42.888	
45.800	47.773	
45.900	44.943	
46.000	50.007	
46.100	53.457	
46.200	40.708	
46.300	51.506	
46.400	47.975	
46.500	52.160	
46.600	40.154	
46.700	56.907	
46.800	54.385	
46.900	38.753	
47.000	39.512	
47.100	44.826	
47.200	32.735	
47.300	51.718	
47.400	33.068	
47.500	42.165	
47.600	51.878	
47.700	51.550	
47.800	34.885	
47.900	43.775	
48.000	48.624	
48.100	37.545	
48.200	50.523	
48.300	52.288	
48.400	47.445	
48.500	52.779	
48.600	50.079	
48.700	37.178	
48.800	37.858	
48.900	48.667	
49.000	46.285	
49.100	35.876	
49.200	33.118	
49.300	46.908	
49.400	52.948	
49.500	53.180	
49.600	44.990	
49.700	54.022	
49.800	59.454	
49.900	34.636	
50.000	46.786	
50.100	34.008	
50.200	40.492	
50.300	48.520	
50.400	54.412	
50.500	42.146	
50.600	43.275	
50.700	37.957	
50.800	53.728	
50.900	47.879	
51.000	49.698	
51.100	46.854	
51.200	44.311	
51.300	44.655	
51.400	38.484	
51.500	58.700	
51.600	45.312	
51.700	41.421	
51.800	42.620	
51.900	46.153	
52.000	56.573	
52.100	50.171	
52.200	34.620	
52.300	52.004	
52.400	48.119	
52.500	39.866	
52.600	43.110	
52.700	56.793	
52.800	54.288	
52.900	46.915	
53.000	34.165	
53.100	40.976	
53.200	38.122	
53.300	48.871	
53.400	42.693	
53.500	27.805	
53.600	37.726	
53.700	45.126	
53.800	44.756	
53.900	54.263	
54.000	45.853	
54.100	48.671	
54.200	42.260	
54.300	48.501	
54.400	42.611	
54.500	46.032	
54.600	41.096	
54.700	43.931	
54.800	61.790	
54.900	39.415	
55.000	48.670	
55.100	34.120	
55.200	52.959	
55.300	32.399	
55.400	40.374	
55.500	48.715	
55.600	54.985	
55.700	32.647	
55.800	57.150	
55.900	45.610	
56.000	37.685	
56.100	43.657	
56.200	39.955	
56.300	44.960	
56.400	45.214	
56.500	43.032	
56.600	52.143	
56.700	53.525	
56.800	29.583	
56.900	59.696	
57.000	38.245	
57.100	52.145	
57.200	44.070	
57.300	36.978	
57.400	34.690	
57.500	42.019	
57.600	50.336	
57.700	29.320	
57.800	46.156	
57.900	49.349	
58.000	49.108	
58.100	44.706	
58.200	39.133	
58.300	51.626	
58.400	57.178	
58.500	43.316	
58.600	45.691	
58.700	42.386	
58.800	41.248	
58.900	44.727	
59.000	48.506	
59.100	38.131	
59.200	39.830	
59.300	44.264	
59.400	33.279	
59.500	34.237	
59.600	37.524	
59.700	41.251	
59.800	59.586	
59.900	35.494	
60.000	43.832	
60.100	41.412	
60.200	45.525	
60.300	46.385	
60.400	37.140	
60.500	52.172	
60.600	39.195	
60.700	38.773	
60.800	34.871	
60.900	30.178	
61.000	39.081	
61.100	34.465	
61.200	42.690	
61.300	44.033	
61.400	56.123	
61.500	47.801	
61.600	49.983	
61.700	45.291	
61.800	44.456	
61.900	15.966	
62.000	56.351	
62.100	59.922	
62.200	49.583	
62.300	40.512	
62.400	49.199	
62.500	33.580	
62.600	42.335	
62.700	38.920	
62.800	52.057	
62.900	41.611	
63.000	46.183	
63.100	39.004	
63.200	51.383	
63.300	56.770	
63.400	43.074	
63.500	42.390	
63.600	28.456	
63.700	61.365	
63.800	50.673	
63.900	45.138	
64.000	46.489	
64.100	45.200	
64.200	42.624	
64.300	32.307	
64.400	47.888	
64.500	37.979	
64.600	38.544	
64.700	35.048	
64.800	50.604	
64.900	41.695	
65.000	49.738	
65.100	37.915	
65.200	53.877	
65.300	34.251	
65.400	28.203	
65.500	43.950	
65.600	38.957	
65.700	41.503	
65.800	48.773	
65.900	33.664	
66.000	51.299	
66.100	42.332	
66.200	45.621	
66.300	42.050	
66.400	26.889	
66.500	55.323	
66.600	43.427	
66.700	44.894	
66.800	53.574	
66.900	47.683	
67.000	44.763	
67.100	53.708	
67.200	42.808	
67.300	48.918	
67.400	50.118	
67.500	41.792	
67.600	37.024	
67.700	42.052	
67.800	56.832	
67.900	37.238	
68.000	50.409	
68.100	40.387	
68.200	44.773	
68.300	37.421	
68.400	37.114	
68.500	30.502	
68.600	41.875	
68.700	41.295	
68.800	47.536	
68.900	48.876	
69.000	50.209	
69.100	56.553	
69.200	48.541	
69.300	41.418	
69.400	39.339	
69.500	45.708	
69.600	41.345	
69.700	40.655	
69.800	42.701	
69.900	52.335	
70.000	52.531	
70.100	48.104	
70.200	51.324	
70.300	54.932	
70.400	52.371	
70.500	53.310	
70.600	49.422	
70.700	48.063	
70.800	37.123	
70.900	47.695	
71.000	52.852	
71.100	41.370	
71.200	47.090	
71.300	53.148	
71.400	32.235	
71.500	55.310	
71.600	43.899	
71.700	51.874	
71.800	45.092	
71.900	36.655	
72.000	36.782	
72.100	32.841	
72.200	42.727	
72.300	34.688	
72.400	51.119	
72.500	44.491	
72.600	40.775	
72.700	38.420	
72.800	52.713	
72.900	46.211	
73.000	48.419	
73.100	43.937	
73.200	48.477	
73.300	43.650	
73.400	52.833	
73.500	47.738	
73.600	35.231	
73.700	40.727	
73.800	54.927	
73.900	43.767	
74.000	38.206	
74.100	41.229	
74.200	42.883	
74.300	31.091	
74.400	50.173	
74.500	58.347	
74.600	49.946	
74.700	39.681	
74.800	50.373	
74.900	42.909	
75.000	53.705	
75.100	52.845	
75.200	44.445	
75.300	50.356	
75.400	44.255	
75.500	35.791	
75.600	31.591	
75.700	38.816	
75.800	54.989	
75.900	56.947	
76.000	46.566	
76.100	34.200	
76.200	47.568	
76.300	43.487	
76.400	56.632	
76.500	41.004	
76.600	40.149	
76.700	51.517	
76.800	34.396	
76.900	52.767	
77.000	53.015	
77.100	49.677	
77.200	50.035	
77.300	54.306	
77.400	34.907	
77.500	41.538	
77.600	44.485	
77.700	47.964	
77.800	31.165	
77.900	62.726	
78.000	50.095	
78.100	56.780	
78.200	25.001	
78.300	66.795	
78.400	45.722	
78.500	40.634	
78.600	50.445	
78.700	55.627	
78.800	35.192	
78.900	39.531	
79.000	65.758	
79.100	54.625	
79.200	37.648	
79.300	54.813	
79.400	53.288	
79.500	49.944	
79.600	49.425	
79.700	39.113	
79.800	51.330	
79.900	52.545	
80.000	37.522	
80.100	50.846	
80.200	42.032	
80.300	44.244	
80.400	55.354	
80.500	42.982	
80.600	58.817	
80.700	46.703	
80.800	39.775	
80.900	45.053	
81.000	36.702	
81.100	45.639	
81.200	27.164	
81.300	50.448	
81.400	54.485	
81.500	52.044	
81.600	58.962	
81.700	35.290	
81.800	47.300	
81.900	47.307	
82.000	42.674	
82.100	46.639	
82.200	43.332	
82.300	54.488	
82.400	46.955	
82.500	41.189	
82.600	49.680	
82.700	59.715	
82.800	47.266	
82.900	28.886	
83.000	57.555	
83.100	42.879	
83.200	52.307	
83.300	44.132	
83.400	35.220	
83.500	51.898	
83.600	40.934	
83.700	60.911	
83.800	50.168	
83.900	53.886	
84.000	33.371	
84.100	40.983	
84.200	55.008	
84.300	44.196	
84.400	53.501	
84.500	44.377	
84.600	49.557	
84.700	58.938	
84.800	52.783	
84.900	41.774	
85.000	39.359	
85.100	53.831	
85.200	44.778	
85.300	48.520	
85.400	54.381	
85.500	39.676	
85.600	52.644	
85.700	48.638	
85.800	51.918	
85.900	42.725	
86.000	41.310	
86.100	59.248	
86.200	42.359	
86.300	40.940	
86.400	63.645	
86.500	56.286	
86.600	42.623	
86.700	55.276	
86.800	49.193	
86.900	42.881	
87.000	49.692	
87.100	47.319	
87.200	53.494	
87.300	50.304	
87.400	43.612	
87.500	64.015	
87.600	39.382	
87.700	54.478	
87.800	58.223	
87.900	48.919	
88.000	48.455	
88.100	52.049	
88.200	48.625	
88.300	34.859	
88.400	56.729	
88.500	56.732	
88.600	55.843	
88.700	39.764	
88.800	57.588	
88.900	40.489	
89.000	54.859	
89.100	48.192	
89.200	43.452	
89.300	48.621	
89.400	41.055	
89.500	61.023	
89.600	63.579	
89.700	48.053	
89.800	50.746	
89.900	45.049	
90.000	62.336	
90.100	57.752	
90.200	42.554	
90.300	43.626	
90.400	60.865	
90.500	36.855	
90.600	27.824	
90.700	41.093	
90.800	39.554	
90.900	29.264	
91.000	18.019	
91.100	26.006	
91.200	19.848	
91.300	18.343	
91.400	5.395	
91.500	-0.322	
91.600	3.560	
91.700	-5.687	
91.800	-18.565	
91.900	-12.945	
92.000	-18.407	
92.100	-24.863	
92.200	-20.165	
92.300	-43.303	
92.400	-39.218	
92.500	-36.904	
92.600	-34.573	
92.700	-43.786	
92.800	-31.834	
92.900	-30.283	
93.000	-38.118	
93.100	-46.424	
93.200	-39.538	
93.300	-40.869	
93.400	-53.691	
93.500	-58.992	
93.600	-51.300	
93.700	-29.437	
93.800	-34.066	
93.900	-48.626	
94.000	-60.718	
94.100	-56.143	
94.200	-41.910	
94.300	-42.191	
94.400	-42.801	
94.500	-42.550	
94.600	-45.332	
94.700	-41.842	
94.800	-40.072	
94.900	-53.365	
95.000	-50.867	
95.100	-41.366	
95.200	-36.904	
95.300	-55.709	
95.400	-52.464	
95.500	-55.701	
95.600	-38.919	
95.700	-28.277	
95.800	-38.830	
95.900	-47.196	
96.000	-30.672	
96.100	-44.709	
96.200	-45.165	
96.300	-36.913	
96.400	-34.103	
96.500	-42.098	
96.600	-35.433	
96.700	-26.059	
96.800	-34.689	
96.900	-31.175	
97.000	-37.484	
97.100	-32.038	
97.200	-28.047	
97.300	-42.013	
97.400	-40.877	
97.500	-37.711	
97.600	-39.527	
97.700	-34.460	
97.800	-24.509	
97.900	-24.628	
98.000	-42.022	
98.100	-18.941	
98.200	-35.787	
98.300	-36.835	
98.400	-31.244	
98.500	-33.041	
98.600	-43.615	
98.700	-23.908	
98.800	-24.707	
98.900	-30.275	
99.000	-22.309	
99.100	-22.255	
99.200	-30.898	
99.300	-32.783	
99.400	-39.720	
99.500	-30.353	
99.600	-36.461	
99.700	-0.905	
99.800	-34.175	
99.900	-39.272	
100.000	-23.723	
100.100	-30.180	
100.200	-7.637	
100.300	-27.970	
100.400	-28.093	
100.500	-40.721	
100.600	-29.577	
100.700	-27.346	
100.800	-42.268	
100.900	-31.919	
101.000	-16.207	
101.100	-39.136	
101.200	-33.432	
101.300	-19.815	
101.400	-20.857	
101.500	-27.292	
101.600	-49.238	
101.700	-31.866	
101.800	-32.146	
101.900	-35.317	
102.000	-15.620	
102.100	-25.817	
102.200	-38.434	
102.300	-21.657	
102.400	-40.312	
102.500	-20.505	
102.600	-27.914	
102.700	-35.352	
102.800	-30.138	
102.900	-18.528	
103.000	-30.658	
103.100	-13.147	
103.200	-23.411	
103.300	-19.722	
103.400	-23.016	
103.500	-21.143	
103.600	-29.437	
103.700	-25.782	
103.800	-33.069	
103.900	-28.361	
104.000	-23.439	
104.100	-24.908	
104.200	-30.316	
104.300	-36.936	
104.400	-8.120	
104.500	-35.924	
104.600	-35.120	
104.700	-11.224	
104.800	-17.004	
104.900	-33.154	
105.000	-31.950	
105.100	-20.956	
105.200	-27.154	
105.300	-17.596	
105.400	-28.039	
105.500	-41.212	
105.600	-23.808	
105.700	-15.805	
105.800	-18.956	
105.900	-13.759	
106.000	-33.042	
106.100	-17.965	
106.200	-32.204	
106.300	-16.382	
106.400	-22.392	
106.500	-28.060	
106.600	-32.655	
106.700	-43.891	
106.800	-21.901	
106.900	-21.418	
107.000	-33.518	
107.100	-21.880	
107.200	-28.686	
107.300	-8.006	
107.400	-29.209	
107.500	-17.111	
107.600	-31.656	
107.700	-30.179	
107.800	-16.170	
107.900	-17.733	
108.000	-20.369	
108.100	-25.105	
108.200	-21.068	
108.300	-14.707	
108.400	-22.723	
108.500	-30.412	
108.600	-43.459	
108.700	-15.091	
108.800	-27.051	
108.900	-29.738	
109.000	-11.896	
109.100	-21.835	
109.200	-25.539	
109.300	-21.223	
109.400	-31.901	
109.500	-12.265	
109.600	-25.921	
109.700	-27.282	
109.800	-20.426	
109.900	-34.951	
110.000	-20.104	
110.100	-25.407	
110.200	-15.028	
110.300	-28.291	
110.400	-19.473	
110.500	-28.453	
110.600	-32.281	
110.700	-28.966	
110.800	-25.820	
110.900	-20.537	
111.000	-16.514	
111.100	-18.518	
111.200	-29.155	
111.300	-38.477	
111.400	-5.022	
111.500	-19.915	
111.600	-23.854	
111.700	-25.026	
111.800	-22.380	
111.900	-15.137	
112.000	-33.835	
112.100	-17.550	
112.200	-17.269	
112.300	-25.863	
112.400	-28.015	
112.500	-25.202	
112.600	-12.586	
112.700	-27.397	
112.800	-23.199	
112.900	-24.698	
113.000	-15.470	
113.100	-21.346	
113.200	-25.129	
113.300	-40.788	
113.400	-5.942	
113.500	-15.431	
113.600	-23.769	
113.700	-31.060	
113.800	-11.027	
113.900	-16.011	
114.000	-34.489	
114.100	-14.458	
114.200	-19.446	
114.300	-29.503	
114.400	-26.573	
114.500	-3.524	
114.600	-32.781	
114.700	-25.956	
114.800	-22.861	
114.900	-21.543	
115.000	-20.134	
115.100	-25.584	
115.200	-13.534	
115.300	-31.135	
115.400	-19.105	
115.500	-14.776	
115.600	-17.430	
115.700	-19.641	
115.800	-26.305	
115.900	-16.325	
116.000	-12.059	
116.100	-29.776	
116.200	-21.262	
116.300	-9.787	
116.400	-28.831	
116.500	-8.653	
116.600	-32.732	
116.700	-26.116	
116.800	-26.150	
116.900	-2.828	
117.000	-27.793	
117.100	-22.209	
117.200	-16.328	
117.300	-18.254	
117.400	-7.789	
117.500	-24.096	
117.600	-18.414	
117.700	-13.859	
117.800	-15.161	
117.900	-20.743	
118.000	-14.076	
118.100	-18.280	
118.200	-17.868	
118.300	-27.247	
118.400	-21.566	
118.500	-7.919	
118.600	-22.709	
118.700	-22.655	
118.800	-23.625	
118.900	-23.318	
119.000	-24.413	
119.100	-12.733	
119.200	-23.919	
119.300	-28.089	
119.400	-22.261	
119.500	-18.208	
119.600	-23.428	
119.700	-11.609	
119.800	-21.837	
119.900	-20.232	
120.000	-14.031	
120.100	3.291	
120.200	-24.649	
120.300	-17.063	
120.400	-16.963	
120.500	-23.355	
120.600	-4.569	
120.700	-17.341	
120.800	-14.393	
120.900	-26.607	
121.000	-29.077	
121.100	-14.081	
121.200	-18.190	
121.300	-18.854	
121.400	-24.319	
121.500	-20.502	
121.600	-22.174	
121.700	-20.297	
121.800	-16.873	
121.900	-17.723	
122.000	-19.133	
122.100	-19.232	
122.200	-3.944	
122.300	-20.605	
122.400	-27.858	
122.500	-5.874	
122.600	-15.776	
122.700	-14.276	
122.800	-24.663	
122.900	-18.072	
123.000	-27.919	
123.100	-27.739	
123.200	-11.948	
123.300	-9.304	
123.400	-9.174	
123.500	-23.593	
123.600	-15.925	
123.700	-15.251	
123.800	-15.034	
123.900	-24.338	
124.000	-7.054	
124.100	-26.175	
124.200	-33.027	
124.300	-1.749	
124.400	-17.049	
124.500	-23.754	
124.600	-9.025	
124.700	-17.629	
124.800	-20.865	
124.900	-12.661	
125.000	-5.790	
125.100	-10.453	
125.200	-19.020	
125.300	-24.678	
125.400	-25.004	
125.500	-16.568	
125.600	-18.996	
125.700	-17.639	
125.800	-8.548	
125.900	-16.733	
126.000	-20.536	
126.100	-17.404	
126.200	-21.373	
126.300	-22.488	
126.400	-15.879	
126.500	-20.234	
126.600	-8.231	
126.700	-14.437	
126.800	-14.495	
126.900	-11.725	
127.000	-6.100	
127.100	-31.167	
127.200	-6.501	
127.300	-25.205	
127.400	-21.895	
127.500	-14.335	
127.600	-27.781	
127.700	-8.770	
127.800	-0.507	
127.900	-17.331	
128.000	-19.593	
128.100	-14.634	
128.200	-5.908	
128.300	-19.803	
128.400	-17.813	
128.500	-20.408	
128.600	-17.193	
128.700	-26.874	
128.800	-14.987	
128.900	-30.762	
129.000	-9.409	
129.100	-28.286	
129.200	-12.473	
129.300	-11.870	
129.400	-24.610	
129.500	-12.830	
129.600	-15.263	
129.700	-28.270	
129.800	-5.860	
129.900	-5.610	
130.000	-19.772	
130.100	-16.538	
130.200	-12.637	
130.300	-20.449	
130.400	-14.056	
130.500	-10.965	
130.600	-25.573	
130.700	-7.571	
130.800	-23.930	
130.900	-21.067	
131.000	-25.887	
131.100	-22.778	
131.200	-23.450	
131.300	-20.441	
131.400	-14.805	
131.500	-21.979	
131.600	-9.907	
131.700	-4.160	
131.800	-12.547	
131.900	-16.618	
132.000	-25.050	
132.100	-8.216	
132.200	-7.997	
132.300	-29.929	
132.400	0.792	
132.500	-13.833	
132.600	-21.454	
132.700	-28.219	
132.800	-9.076	
132.900	-16.704	
133.000	-13.127	
133.100	-12.343	
133.200	-6.800	
133.300	-22.009	
133.400	-17.605	
133.500	-19.843	
133.600	-24.295	
133.700	-14.555	
133.800	-16.301	
133.900	-20.758	
134.000	-11.507	
134.100	-15.567	
134.200	-9.143	
134.300	-9.841	
134.400	-19.359	
134.500	-17.741	
134.600	-9.537	
134.700	-16.210	
134.800	-16.186	
134.900	1.947	
135.000	-13.254	
135.100	-24.620	
135.200	-13.283	
135.300	-19.005	
135.400	-15.503	
135.500	-8.235	
135.600	-22.876	
135.700	-12.229	
135.800	-20.635	
135.900	-20.431	
136.000	-12.465	
136.100	-14.174	
136.200	-10.891	
136.300	-15.226	
136.400	-13.388	
136.500	-13.512	
136.600	-10.979	
136.700	-32.454	
136.800	-10.601	
136.900	0.026	
137.000	-11.447	
137.100	-19.392	
137.200	-13.600	
137.300	-7.723	
137.400	-23.949	
137.500	-21.009	
137.600	-22.940	
137.700	-11.901	
137.800	-17.513	
137.900	-5.605	
138.000	-6.846	
138.100	-33.740	
138.200	-22.111	
138.300	-7.449	
138.400	-25.045	
138.500	-14.457	
138.600	-11.525	
138.700	-11.619	
138.800	-15.841	
138.900	-17.123	
139.000	-7.299	
139.100	-15.962	
139.200	-9.879	
139.300	-21.175	
139.400	-8.951	
139.500	-12.893	
139.600	-12.972	
139.700	-5.104	
139.800	-17.840	
139.900	-7.992	
140.000	-4.766	
140.100	-22.517	
140.200	-1.337	
140.300	-16.790	
140.400	-11.633	
140.500	-14.572	
140.600	-19.739	
140.700	-16.905	
140.800	1.467	
140.900	-15.291	
141.000	-18.565	
141.100	-10.731	
141.200	-24.304	
141.300	-2.664	
141.400	-29.528	
141.500	-18.824	
141.600	-14.565	
141.700	-11.035	
141.800	-18.814	
141.900	-11.257	
142.000	-18.556	
142.100	-10.837	
142.200	-15.894	
142.300	-11.102	
142.400	-5.561	
142.500	-1.299	
142.600	-25.946	
142.700	-6.711	
142.800	-20.202	
142.900	-18.546	
143.000	-14.714	
143.100	-23.658	
143.200	-19.291	
143.300	0.046	
143.400	-8.750	
143.500	-13.906	
143.600	-13.450	
143.700	-12.640	
143.800	-1.156	
143.900	-15.285	
144.000	-14.304	
144.100	-31.904	
144.200	-1.133	
144.300	-21.974	
144.400	-14.272	
144.500	-9.370	
144.600	-15.143	
144.700	-20.090	
144.800	-13.599	
144.900	-22.150	
145.000	-3.085	
145.100	-4.053	
145.200	-12.866	
145.300	-19.408	
145.400	-29.018	
145.500	0.934	
145.600	-31.428	
145.700	-8.930	
145.800	-15.695	
145.900	-8.224	
146.000	-14.315	
146.100	-12.870	
146.200	-21.718	
146.300	-22.535	
146.400	4.942	
146.500	-14.959	
146.600	-19.317	
146.700	-16.378	
146.800	-20.471	
146.900	-20.686	
147.000	-12.687	
147.100	-6.345	
147.200	-12.914	
147.300	-12.192	
147.400	-13.497	
147.500	-13.812	
147.600	-10.331	
147.700	-26.209	
147.800	-16.551	
147.900	-2.715	
148.000	-0.182	
148.100	-22.908	
148.200	-26.735	
148.300	-23.481	
148.400	-0.175	
148.500	-22.451	
148.600	-14.878	
148.700	-2.284	
148.800	-19.516	
148.900	-11.148	
149.000	-15.529	
149.100	-10.151	
149.200	-13.056	
149.300	-11.835	
149.400	-25.324	
149.500	-10.482	
149.600	-19.668	
149.700	-27.113	
149.800	-9.305	
149.900	-23.530	
150.000	-9.913	
150.100	-21.490	
150.200	-15.357	
150.300	-14.061	
150.400	-18.244	
150.500	-4.982	
150.600	-16.984	
150.700	-5.349	
150.800	-11.306	
150.900	-12.489	
151.000	-30.285	
151.100	-10.420	
151.200	-17.091	
151.300	-9.171	
151.400	-18.408	
151.500	-3.234	
151.600	-19.323	
151.700	-10.130	
151.800	-8.589	
151.900	-8.942	
152.000	-13.177	
152.100	-7.718	
152.200	-18.273	
152.300	-5.013	
152.400	-18.299	
152.500	-25.573	
152.600	-2.359	
152.700	-7.495	
152.800	-4.096	
152.900	-11.851	
153.000	-29.357	
153.100	-23.276	
153.200	-17.435	
153.300	0.874	
153.400	2.963	
153.500	-19.597	
153.600	-21.389	
153.700	-18.190	
153.800	-12.584	
153.900	-1.754	
154.000	-18.675	
154.100	-8.278	
154.200	-13.660	
154.300	-16.413	
154.400	-1.861	
154.500	-19.711	
154.600	-8.455	
154.700	-17.669	
154.800	-23.729	
154.900	2.042	
155.000	-21.999	
155.100	-3.032	
155.200	-12.028	
155.300	-21.521	
155.400	1.462	
155.500	-14.702	
155.600	-13.414	
155.700	-25.127	
155.800	-11.186	
155.900	-14.232	
156.000	-24.344	
156.100	-13.064	
156.200	1.580	
156.300	8.160	
156.400	-21.432	
156.500	-5.780	
156.600	-21.052	
156.700	-8.608	
156.800	-3.320	
156.900	-8.050	
157.000	-14.140	
157.100	-17.959	
157.200	-13.045	
157.300	-19.169	
157.400	-34.410	
157.500	-19.818	
157.600	-0.235	
157.700	-17.547	
157.800	-16.130	
157.900	-13.114	
158.000	-10.459	
158.100	-19.382	
158.200	-17.762	
158.300	-12.785	
158.400	-4.867	
158.500	-9.515	
158.600	-10.433	
158.700	-17.970	
158.800	-13.368	
158.900	-3.630	
159.000	-9.881	
159.100	-16.247	
159.200	-9.112	
159.300	-5.675	
159.400	-14.056	
159.500	-8.821	
159.600	-15.624	
159.700	-11.713	
159.800	-0.227	
159.900	-10.532	
160.000	-8.377	
160.100	-17.222	
160.200	-8.674	
160.300	-6.308	
160.400	-11.790	
160.500	-16.524	
160.600	-16.718	
160.700	-8.232	
160.800	-8.258	
160.900	-10.806	
161.000	-26.521	
161.100	-5.489	
161.200	-7.968	
161.300	-8.322	
161.400	-12.577	
161.500	-28.628	
161.600	-8.303	
161.700	-3.210	
161.800	0.929	
161.900	-20.209	
162.000	-2.395	
162.100	-16.853	
162.200	-19.931	
162.300	4.835	
162.400	-12.948	
162.500	-12.376	
162.600	-16.426	
162.700	-4.410	
162.800	-9.535	
162.900	-2.909	
163.000	-14.926	
163.100	-20.989	
163.200	-10.201	
163.300	-12.910	
163.400	-5.062	
163.500	-15.660	
163.600	-17.572	
163.700	-10.810	
163.800	-18.382	
163.900	-14.002	
164.000	3.345	
164.100	-16.269	
164.200	-19.728	
164.300	-2.789	
164.400	-19.367	
164.500	-10.608	
164.600	-4.208	
164.700	5.601	
164.800	-8.429	
164.900	4.230	
165.000	-16.787	
165.100	-18.771	
165.200	-3.531	
165.300	-7.504	
165.400	-3.890	
165.500	3.253	
165.600	-12.654	
165.700	-29.236	
165.800	-14.589	
165.900	-16.999	
166.000	-1.806	
166.100	-5.559	
166.200	-12.563	
166.300	-0.404	
166.400	-12.860	
166.500	-11.260	
166.600	-7.616	
166.700	-1.663	
166.800	-25.156	
166.900	-14.392	
167.000	-10.833	
167.100	-25.548	
167.200	-9.144	
167.300	-15.841	
167.400	-2.922	
167.500	-6.954	
167.600	-7.872	
167.700	-0.847	
167.800	-11.686	
167.900	-17.317	
168.000	0.256	
168.100	-3.578	
168.200	-29.179	
168.300	-13.407	
168.400	-32.923	
168.500	-15.982	
168.600	-1.895	
168.700	-18.335	
168.800	-15.458	
168.900	-11.576	
169.000	2.935	
169.100	-5.219	
169.200	-16.546	
169.300	-18.641	
169.400	-9.588	
169.500	-18.461	
169.600	0.401	
169.700	-6.926	
169.800	-8.196	
169.900	-21.554	
170.000	-17.349	
170.100	-8.007	
170.200	1.644	
170.300	-15.394	
170.400	-11.911	
170.500	-11.807	
170.600	-12.710	
170.700	0.506	
170.800	-11.822	
170.900	-0.639	
171.000	-8.689	
171.100	0.746	
171.200	-12.930	
171.300	-15.311	
171.400	-9.932	
171.500	2.680	
171.600	-8.817	
171.700	-11.436	
171.800	-20.592	
171.900	-9.838	
172.000	-13.348	
172.100	-5.254	
172.200	-5.756	
172.300	-10.641	
172.400	-22.205	
172.500	-26.202	
172.600	-9.555	
172.700	-4.291	
172.800	-0.720	
172.900	-24.695	
173.000	-16.228	
173.100	-16.928	
173.200	-1.915	
173.300	-0.765	
173.400	-2.607	
173.500	-12.334	
173.600	-5.569	
173.700	-10.567	
173.800	-6.606	
173.900	-11.829	
174.000	-12.702	
174.100	-13.187	
174.200	-6.645	
174.300	-17.285	
174.400	-9.132	
174.500	-3.993	
174.600	-13.938	
174.700	-14.026	
174.800	-2.142	
174.900	-7.095	
175.000	-2.443	
175.100	-15.831	
175.200	-13.079	
175.300	-7.683	
175.400	5.520	
175.500	-6.949	
175.600	-10.371	
175.700	-13.799	
175.800	-13.465	
175.900	-7.161	
176.000	-12.194	
176.100	-4.631	
176.200	-17.533	
176.300	-13.387	
176.400	-24.884	
176.500	-8.764	
176.600	-9.382	
176.700	-0.488	
176.800	-0.108	
176.900	-5.315	
177.000	-10.558	
177.100	3.764	
177.200	-11.405	
177.300	-9.443	
177.400	1.618	
177.500	-5.946	
177.600	-21.643	
177.700	-15.908	
177.800	-4.089	
177.900	-16.746	
178.000	-1.956	
178.100	-13.196	
178.200	-10.666	
178.300	-13.149	
178.400	-16.104	
178.500	8.360	
178.600	-8.837	
178.700	-3.812	
178.800	-24.236	
178.900	-1.200	
179.000	-5.805	
179.100	-4.914	
179.200	-17.410	
179.300	-12.230	
179.400	-16.707	
179.500	-13.561	
179.600	-4.921	
179.700	-8.899	
179.800	-11.727	
179.900	-5.914	
180.000	-10.332	
180.100	-9.406	
180.200	-7.501	
180.300	-15.401	
180.400	3.563	
180.500	15.178	
180.600	17.811	
180.700	3.686	
180.800	28.230	
180.900	37.918	
181.000	26.279	
181.100	26.834	
181.200	46.322	
181.300	35.562	
181.400	34.711	
181.500	27.933	
181.600	34.912	
181.700	25.161	
181.800	57.795	
181.900	35.486	
182.000	30.881	
182.100	46.715	
182.200	41.600	
182.300	40.696	
182.400	30.959	
182.500	42.812	
182.600	30.919	
182.700	58.244	
182.800	39.989	
182.900	21.450	
183.000	36.341	
183.100	35.995	
183.200	31.065	
183.300	29.040	
183.400	31.587	
183.500	32.491	
183.600	16.911	
183.700	16.753	
183.800	35.368	
183.900	26.017	
184.000	24.282	
184.100	36.959	
184.200	40.318	
184.300	22.307	
184.400	33.571	
184.500	40.543	
184.600	9.650	
184.700	26.910	
184.800	27.041	
184.900	41.676	
185.000	32.299	
185.100	23.772	
185.200	45.196	
185.300	29.878	
185.400	25.907	
185.500	33.765	
185.600	40.228	
185.700	22.246	
185.800	33.250	
185.900	2.440	
186.000	29.547	
186.100	28.932	
186.200	32.856	
186.300	27.739	
186.400	42.085	
186.500	38.154	
186.600	25.324	
186.700	33.190	
186.800	27.422	
186.900	30.176	
187.000	38.383	
187.100	30.049	
187.200	40.837	
187.300	31.013	
187.400	37.228	
187.500	40.018	
187.600	42.432	
187.700	44.926	
187.800	36.127	
187.900	31.905	
188.000	28.883	
188.100	38.949	
188.200	35.424	
188.300	41.736	
188.400	36.728	
188.500	31.554	
188.600	29.824	
188.700	59.785	
188.800	40.845	
188.900	40.693	
189.000	37.140	
189.100	39.726	
189.200	41.108	
189.300	49.664	
189.400	35.247	
189.500	57.911	
189.600	36.785	
189.700	42.484	
189.800	41.960	
189.900	39.391	
190.000	51.882	
190.100	51.169	
190.200	39.072	
190.300	52.674	
190.400	44.247	
190.500	33.773	
190.600	46.131	
190.700	50.731	
190.800	47.574	
190.900	50.002	
191.000	46.132	
191.100	46.509	
191.200	49.711	
191.300	45.877	
191.400	53.586	
191.500	48.184	
191.600	50.237	
191.700	45.238	
191.800	42.387	
191.900	42.642	
192.000	53.958	
192.100	44.167	
192.200	50.305	
192.300	56.229	
192.400	44.483	
192.500	45.096	
192.600	68.606	
192.700	45.307	
192.800	51.870	
192.900	51.076	
193.000	48.825	
193.100	50.544	
193.200	51.188	
193.300	53.634	
193.400	54.440	
193.500	53.210	
193.600	43.539	
193.700	46.648	
193.800	50.357	
193.900	52.568	
194.000	43.502	
194.100	51.770	
194.200	49.104	
194.300	68.271	
194.400	61.773	
194.500	58.090	
194.600	47.928	
194.700	53.723	
194.800	52.772	
194.900	53.661	
195.000	59.800	
195.100	54.461	
195.200	39.646	
195.300	59.126	
195.400	64.608	
195.500	52.735	
195.600	52.312	
195.700	44.366	
195.800	46.671	
195.900	59.445	
196.000	58.691	
196.100	56.210	
196.200	42.455	
196.300	38.329	
196.400	63.056	
196.500	41.794	
196.600	46.985	
196.700	54.179	
196.800	61.641	
196.900	51.873	
197.000	50.569	
197.100	53.471	
197.200	44.023	
197.300	54.802	
197.400	61.011	
197.500	51.331	
197.600	55.520	
197.700	52.962	
197.800	53.336	
197.900	58.253	
198.000	41.337	
198.100	69.676	
198.200	52.076	
198.300	57.616	
198.400	50.302	
198.500	52.206	
198.600	51.403	
198.700	53.755	
198.800	50.871	
198.900	54.669	
199.000	52.513	
199.100	52.519	
199.200	55.343	
199.300	59.646	
199.400	51.578	
199.500	52.460	
199.600	53.700	
199.700	46.491	
199.800	57.444	
199.900	58.273	
200.000	50.084	
200.100	54.685	
200.200	51.601	
200.300	58.684	
200.400	52.989	
200.500	55.253	
200.600	62.134	
200.700	55.833	
200.800	51.313	
200.900	54.858	
201.000	53.453	
201.100	30.254	
201.200	73.616	
201.300	46.588	
201.400	52.546	
201.500	38.423	
201.600	53.090	
201.700	54.215	
201.800	58.487	
201.900	46.228	
202.000	58.009	
202.100	53.304	
202.200	53.517	
202.300	49.598	
202.400	46.100	
202.500	50.955	
202.600	52.764	
202.700	54.150	
202.800	58.753	
202.900	38.473	
203.000	52.896	
203.100	57.000	
203.200	43.073	
203.300	57.521	
203.400	66.555	
203.500	43.932	
203.600	67.967	
203.700	48.223	
203.800	48.684	
203.900	54.484	
204.000	57.646	
204.100	55.682	
204.200	50.958	
204.300	50.102	
204.400	51.298	
204.500	51.056	
204.600	57.858	
204.700	34.025	
204.800	64.576	
204.900	50.728	
205.000	62.525	
205.100	43.046	
205.200	43.293	
205.300	54.007	
205.400	41.617	
205.500	55.603	
205.600	55.946	
205.700	55.395	
205.800	46.086	
205.900	45.223	
206.000	48.468	
206.100	53.842	
206.200	52.919	
206.300	43.579	
206.400	51.132	
206.500	64.397	
206.600	49.676	
206.700	43.414	
206.800	52.462	
206.900	63.057	
207.000	59.644	
207.100	45.509	
207.200	41.746	
207.300	36.431	
207.400	65.335	
207.500	52.686	
207.600	56.627	
207.700	49.565	
207.800	58.072	
207.900	56.940	
208.000	47.624	
208.100	60.582	
208.200	59.011	
208.300	53.488	
208.400	44.884	
208.500	37.597	
208.600	56.951	
208.700	58.285	
208.800	43.480	
208.900	64.950	
209.000	47.901	
209.100	41.188	
209.200	52.369	
209.300	50.937	
209.400	43.639	
209.500	47.289	
209.600	62.872	
209.700	49.606	
209.800	48.722	
209.900	47.142	
210.000	52.376	
210.100	52.818	
210.200	65.232	
210.300	39.525	
210.400	53.778	
210.500	52.834	
210.600	49.823	
210.700	37.524	
210.800	61.550	
210.900	48.478	
211.000	59.310	
211.100	57.588	
211.200	55.836	
211.300	53.889	
211.400	47.483	
211.500	49.237	
211.600	42.103	
211.700	54.428	
211.800	56.615	
211.900	43.815	
212.000	58.568	
212.100	49.234	
212.200	53.722	
212.300	56.607	
212.400	54.278	
212.500	52.438	
212.600	39.427	
212.700	48.004	
212.800	42.470	
212.900	44.199	
213.000	63.435	
213.100	53.344	
213.200	55.701	
213.300	44.646	
213.400	50.176	
213.500	50.955	
213.600	40.234	
213.700	52.186	
213.800	56.572	
213.900	48.631	
214.000	58.287	
214.100	49.493	
214.200	51.026	
214.300	57.643	
214.400	55.163	
214.500	39.498	
214.600	58.417	
214.700	40.273	
214.800	42.957	
214.900	62.952	
215.000	56.643	
215.100	65.025	
215.200	56.396	
215.300	45.569	
215.400	51.878	
215.500	51.848	
215.600	47.998	
215.700	58.647	
215.800	56.466	
215.900	51.414	
216.000	52.274	
216.100	46.912	
216.200	62.667	
216.300	55.618	
216.400	53.779	
216.500	53.476	
216.600	56.332	
216.700	58.294	
216.800	47.521	
216.900	45.449	
217.000	55.407	
217.100	47.420	
217.200	55.969	
217.300	46.048	
217.400	32.846	
217.500	58.505	
217.600	45.761	
217.700	59.747	
217.800	38.210	
217.900	66.382	
218.000	50.649	
218.100	51.064	
218.200	35.251	
218.300	53.782	
218.400	40.572	
218.500	42.495	
218.600	65.515	
218.700	41.047	
218.800	65.707	
218.900	48.326	
219.000	48.357	
219.100	35.801	
219.200	59.541	
219.300	58.494	
219.400	47.486	
219.500	52.415	
219.600	56.535	
219.700	44.139	
219.800	58.166	
219.900	37.052	
220.000	60.517	
220.100	51.311	
220.200	43.320	
220.300	48.564	
220.400	56.550	
220.500	40.414	
220.600	52.613	
220.700	47.612	
220.800	46.401	
220.900	43.367	
221.000	55.005	
221.100	54.294	
221.200	53.313	
221.300	45.465	
221.400	42.082	
221.500	54.236	
221.600	47.048	
221.700	61.297	
221.800	54.491	
221.900	42.501	
222.000	57.130	
222.100	66.682	
222.200	38.464	
222.300	46.675	
222.400	71.160	
222.500	51.335	
222.600	41.240	
222.700	57.169	
222.800	45.442	
222.900	52.986	
223.000	54.304	
223.100	65.330	
223.200	40.617	
223.300	58.438	
223.400	51.894	
223.500	65.349	
223.600	59.569	
223.700	55.202	
223.800	60.611	
223.900	37.367	
224.000	55.312	
224.100	45.400	
224.200	66.334	
224.300	47.025	
224.400	70.536	
224.500	53.010	
224.600	54.798	
224.700	64.557	
224.800	55.333	
224.900	61.678	
225.000	50.426	
225.100	44.914	
225.200	45.155	
225.300	57.988	
225.400	54.319	
225.500	58.425	
225.600	55.094	
225.700	55.825	
225.800	52.971	
225.900	58.345	
226.000	54.894	
226.100	57.902	
226.200	54.903	
226.300	62.613	
226.400	48.920	
226.500	39.486	
226.600	62.639	
226.700	62.728	
226.800	47.796	
226.900	57.846	
227.000	43.965	
227.100	52.702	
227.200	47.242	
227.300	62.504	
227.400	67.215	
227.500	54.072	
227.600	49.703	
227.700	52.235	
227.800	44.250	
227.900	47.287	
228.000	49.392	
228.100	55.331	
228.200	50.328	
228.300	69.515	
228.400	58.678	
228.500	53.241	
228.600	40.580	
228.700	45.885	
228.800	50.245	
228.900	56.048	
229.000	51.541	
229.100	49.522	
229.200	59.103	
229.300	57.397	
229.400	38.972	
229.500	63.135	
229.600	34.563	
229.700	53.325	
229.800	57.771	
229.900	63.651	
230.000	52.436	
230.100	40.802	
230.200	55.087	
230.300	48.011	
230.400	61.621	
230.500	49.602	
230.600	59.481	
230.700	53.324	
230.800	48.068	
230.900	52.141	
231.000	50.986	
231.100	66.633	
231.200	59.832	
231.300	52.528	
231.400	38.787	
231.500	52.206	
231.600	62.944	
231.700	49.518	
231.800	54.131	
231.900	51.478	
232.000	66.275	
232.100	37.609	
232.200	44.904	
232.300	48.461	
232.400	62.747	
232.500	70.647	
232.600	47.559	
232.700	54.804	
232.800	55.159	
232.900	41.471	
233.000	46.342	
233.100	42.955	
233.200	63.308	
233.300	33.708	
233.400	63.297	
233.500	41.377	
233.600	67.804	
233.700	50.629	
233.800	53.143	
233.900	49.518	
234.000	52.445	
234.100	47.988	
234.200	57.314	
234.300	58.142	
234.400	59.787	
234.500	45.715	
234.600	52.873	
234.700	49.508	
234.800	59.174	
234.900	50.057	
235.000	48.294	
235.100	42.440	
235.200	63.819	
235.300	55.322	
235.400	49.276	
235.500	62.452	
235.600	56.684	
235.700	54.600	
235.800	44.039	
235.900	49.387	
236.000	58.044	
236.100	55.492	
236.200	57.882	
236.300	39.404	
236.400	58.715	
236.500	48.801	
236.600	63.119	
236.700	46.665	
236.800	52.001	
236.900	66.033	
237.000	63.188	
237.100	53.479	
237.200	47.200	
237.300	58.658	
237.400	54.139	
237.500	54.164	
237.600	45.116	
237.700	47.096	
237.800	47.508	
237.900	51.846	
238.000	51.418	
238.100	53.309	
238.200	50.699	
238.300	52.483	
238.400	41.712	
238.500	56.136	
238.600	56.819	
238.700	65.028	
238.800	45.259	
238.900	60.815	
239.000	42.809	
239.100	58.940	
239.200	50.576	
239.300	67.363	
239.400	46.936	
239.500	58.055	
239.600	64.991	
239.700	49.216	
239.800	60.875	
239.900	42.986	
240.000	54.615	
240.100	56.520	
240.200	61.776	
240.300	57.153	
240.400	49.481	
240.500	51.813	
240.600	37.666	
240.700	43.273	
240.800	27.038	
240.900	34.678	
241.000	25.393	
241.100	26.619	
241.200	6.092	
241.300	16.620	
241.400	16.412	
241.500	-8.427	
241.600	-7.278	
241.700	-4.151	
241.800	-10.444	
241.900	-28.990	
242.000	-23.890	
242.100	-7.382	
242.200	-30.137	
242.300	-30.736	
242.400	-34.820	
242.500	-26.578	
242.600	-40.413	
242.700	-41.426	
242.800	-33.241	
242.900	-47.482	
243.000	-39.298	
243.100	-46.227	
243.200	-40.091	
243.300	-58.749	
243.400	-53.514	
243.500	-34.279	
243.600	-54.628	
243.700	-46.211	
243.800	-58.151	
243.900	-55.029	
244.000	-42.259	
244.100	-55.873	
244.200	-49.205	
244.300	-48.163	
244.400	-54.193	
244.500	-41.588	
244.600	-50.380	
244.700	-50.858	
244.800	-51.683	
244.900	-54.689	
245.000	-53.239	
245.100	-48.149	
245.200	-35.995	
245.300	-42.922	
245.400	-64.252	
245.500	-45.589	
245.600	-39.880	
245.700	-45.989	
245.800	-31.490	
245.900	-48.394	
246.000	-51.522	
246.100	-34.250	
246.200	-50.059	
246.300	-50.483	
246.400	-36.878	
246.500	-48.638	
246.600	-37.894	
246.700	-44.798	
246.800	-40.629	
246.900	-39.825	
247.000	-42.696	
247.100	-46.375	
247.200	-50.940	
247.300	-29.921	
247.400	-39.815	
247.500	-40.443	
247.600	-59.706	
247.700	-44.160	
247.800	-25.973	
247.900	-38.794	
248.000	-47.250	
248.100	-39.182	
248.200	-46.943	
248.300	-32.273	
248.400	-41.033	
248.500	-35.210	
248.600	-44.270	
248.700	-39.607	
248.800	-46.815	
248.900	-27.791	
249.000	-42.625	
249.100	-27.666	
249.200	-34.287	
249.300	-34.473	
249.400	-47.570	
249.500	-42.432	
249.600	-59.143	
249.700	-31.730	
249.800	-28.026	
249.900	-36.999	
250.000	-36.967	
250.100	-40.367	
250.200	-43.239	
250.300	-36.554	
250.400	-47.166	
250.500	-20.306	
250.600	-49.450	
250.700	-32.150	
250.800	-34.796	
250.900	-44.950	
251.000	-36.588	
251.100	-33.310	
251.200	-21.611	
251.300	-36.177	
251.400	-39.249	
251.500	-37.213	
251.600	-34.584	
251.700	-36.583	
251.800	-39.563	
251.900	-42.982	
252.000	-37.222	
252.100	-23.097	
252.200	-37.918	
252.300	-34.969	
252.400	-28.020	
252.500	-44.020	
252.600	-21.533	
252.700	-44.311	
252.800	-30.967	
252.900	-29.151	
253.000	-28.685	
253.100	-39.522	
253.200	-39.200	
253.300	-20.356	
253.400	-32.159	
253.500	-37.728	
253.600	-25.126	
253.700	-30.785	
253.800	-52.010	
253.900	-21.696	
254.000	-24.669	
254.100	-50.725	
254.200	-34.952	
254.300	-37.679	
254.400	-40.786	
254.500	-44.729	
254.600	-34.013	
254.700	-34.227	
254.800	-39.880	
254.900	-45.357	
255.000	-28.724	
255.100	-22.898	
255.200	-43.479	
255.300	-37.208	
255.400	-35.487	
255.500	-35.249	
255.600	-38.457	
255.700	-22.140	
255.800	-42.910	
255.900	-23.700	
256.000	-23.065	
256.100	-33.597	
256.200	-26.891	
256.300	-41.195	
256.400	-49.426	
256.500	-38.268	
256.600	-19.080	
256.700	-19.622	
256.800	-26.912	
256.900	-28.061	
257.000	-38.587	
257.100	-36.218	
257.200	-38.662	
257.300	-36.774	
257.400	-20.432	
257.500	-16.658	
257.600	-42.274	
257.700	-32.480	
257.800	-40.368	
257.900	-30.798	
258.000	-27.064	
258.100	-36.758	
258.200	-37.043	
258.300	-31.015	
258.400	-39.924	
258.500	-29.075	
258.600	-19.473	
258.700	-26.030	
258.800	-31.738	
258.900	-37.338	
259.000	-25.247	
259.100	-37.238	
259.200	-42.907	
259.300	-22.007	
259.400	-36.665	
259.500	-31.993	
259.600	-36.925	
259.700	-29.980	
259.800	-30.600	
259.900	-20.348	
260.000	-27.998	
260.100	-41.604	
260.200	-24.819	
260.300	-33.234	
260.400	-54.358	
260.500	-20.819	
260.600	-39.237	
260.700	-23.256	
260.800	-34.094	
260.900	-26.170	
261.000	-34.566	
261.100	-26.063	
261.200	-21.914	
261.300	-28.925	
261.400	-39.338	
261.500	-30.282	
261.600	-25.574	
261.700	-29.556	
261.800	-20.113	
261.900	-39.743	
262.000	-21.177	
262.100	-24.517	
262.200	-28.800	
262.300	-40.130	
262.400	-19.022	
262.500	-28.516	
262.600	-38.041	
262.700	-23.001	
262.800	-31.479	
262.900	-29.305	
263.000	-30.144	
263.100	-19.445	
263.200	-43.126	
263.300	-38.551	
263.400	-21.885	
263.500	-21.201	
263.600	-39.366	
263.700	-32.018	
263.800	-19.384	
263.900	-22.021	
264.000	-32.862	
264.100	-16.855	
264.200	-39.075	
264.300	-30.902	
264.400	-35.170	
264.500	-22.023	
264.600	-19.659	
264.700	-46.168	
264.800	-21.558	
264.900	-34.368	
265.000	-21.370	
265.100	-18.114	
265.200	-25.653	
265.300	-27.438	
265.400	-31.814	
265.500	-27.635	
265.600	-23.813	
265.700	-27.170	
265.800	-24.384	
265.900	-20.004	
266.000	-40.168	
266.100	-24.097	
266.200	-31.917	
266.300	-26.667	
266.400	-20.237	
266.500	-27.574	
266.600	-25.895	
266.700	-23.366	
266.800	-28.642	
266.900	-32.816	
267.000	-22.767	
267.100	-18.737	
267.200	-34.368	
267.300	-20.368	
267.400	-20.235	
267.500	-23.434	
267.600	-29.972	
267.700	-15.595	
267.800	-32.328	
267.900	-31.395	
268.000	-26.307	
268.100	-31.594	
268.200	-19.981	
268.300	-25.794	
268.400	-29.338	
268.500	-39.016	
268.600	-21.779	
268.700	-20.945	
268.800	-30.303	
268.900	-18.473	
269.000	-21.702	
269.100	-23.151	
269.200	-28.353	
269.300	-24.256	
269.400	-33.851	
269.500	-20.817	
269.600	-21.102	
269.700	-23.692	
269.800	-21.540	
269.900	-3.472	
270.000	-30.651	
270.100	-22.056	
270.200	-32.468	
270.300	-26.792	
270.400	-11.961	
270.500	-22.470	
270.600	-25.734	
270.700	-11.033	
270.800	-33.981	
270.900	-20.560	
271.000	-15.714	
271.100	-34.445	
271.200	-22.780	
271.300	-27.413	
271.400	-18.470	
271.500	-8.260	
271.600	-25.969	
271.700	-15.727	
271.800	-30.272	
271.900	-24.987	
272.000	-22.399	
272.100	-21.779	
272.200	-38.346	
272.300	-17.809	
272.400	-17.628	
272.500	-17.865	
272.600	-24.527	
272.700	-21.388	
272.800	-20.792	
272.900	-21.339	
273.000	-20.782	
273.100	-42.116	
273.200	-22.063	
273.300	-15.550	
273.400	-11.898	
273.500	-24.682	
273.600	-22.454	
273.700	-22.969	
273.800	-7.924	
273.900	-27.544	
274.000	-26.772	
274.100	-20.795	
274.200	-36.601	
274.300	-4.776	
274.400	-31.198	
274.500	-19.583	
274.600	-26.464	
274.700	-28.678	
274.800	-24.646	
274.900	-12.812	
275.000	-26.530	
275.100	-29.372	
275.200	-19.388	
275.300	-14.030	
275.400	-31.673	
275.500	-8.585	
275.600	-17.497	
275.700	-24.708	
275.800	-29.825	
275.900	-22.686	
276.000	-15.780	
276.100	-25.646	
276.200	-11.500	
276.300	-17.044	
276.400	-20.028	
276.500	-19.867	
276.600	-17.762	
276.700	-9.550	
276.800	-26.070	
276.900	-28.030	
277.000	-22.168	
277.100	-31.775	
277.200	-24.671	
277.300	-21.099	
277.400	-30.446	
277.500	-25.847	
277.600	-20.256	
277.700	-17.833	
277.800	-12.870	
277.900	-36.351	
278.000	-20.197	
278.100	-5.079	
278.200	-10.511	
278.300	-29.340	
278.400	-22.186	
278.500	-20.961	
278.600	-14.820	
278.700	-19.585	
278.800	-14.455	
278.900	-13.040	
279.000	-35.254	
279.100	-39.645	
279.200	-9.090	
279.300	-12.331	
279.400	-17.292	
279.500	-30.322	
279.600	-11.087	
279.700	-20.188	
279.800	-23.939	
279.900	-15.246	
280.000	-17.045	
280.100	-25.493	
280.200	-19.025	
280.300	-16.083	
280.400	-14.931	
280.500	-30.491	
280.600	-11.862	
280.700	-36.592	
280.800	-20.797	
280.900	-8.676	
281.000	-25.041	
281.100	-22.292	
281.200	-18.579	
281.300	-18.039	
281.400	-21.017	
281.500	-10.459	
281.600	-32.166	
281.700	-24.342	
281.800	-20.804	
281.900	-28.216	
282.000	-11.380	
282.100	-8.432	
282.200	-25.324	
282.300	-14.897	
282.400	-21.005	
282.500	-33.047	
282.600	-19.540	
282.700	-27.660	
282.800	-1.543	
282.900	-4.903	
283.000	-14.635	
283.100	-31.275	
283.200	-32.014	
283.300	-19.900	
283.400	-13.991	
283.500	-36.157	
283.600	-6.933	
283.700	-14.941	
283.800	-23.167	
283.900	-28.171	
284.000	-25.783	
284.100	-12.907	
284.200	-29.749	
284.300	-11.599	
284.400	-19.833	
284.500	-0.191	
284.600	-12.043	
284.700	-18.013	
284.800	-18.545	
284.900	-17.977	
285.000	-19.305	
285.100	-20.889	
285.200	-9.531	
285.300	-15.806	
285.400	-16.850	
285.500	-26.771	
285.600	-11.543	
285.700	-21.934	
285.800	-11.575	
285.900	-33.542	
286.000	-14.873	
286.100	0.865	
286.200	-1.090	
286.300	-22.482	
286.400	-9.448	
286.500	-14.409	
286.600	-12.811	
286.700	-30.554	
286.800	-22.133	
286.900	-11.807	
287.000	-12.486	
287.100	-10.759	
287.200	-23.661	
287.300	-27.607	
287.400	-11.805	
287.500	-24.377	
287.600	1.163	
287.700	-11.607	
287.800	-14.826	
287.900	-25.996	
288.000	-23.154	
288.100	-4.247	
288.200	-7.429	
288.300	-13.525	
288.400	-14.351	
288.500	-23.926	
288.600	-18.000	
288.700	-18.587	
288.800	-9.200	
288.900	-29.255	
289.000	-12.439	
289.100	-14.164	
289.200	-12.684	
289.300	-16.646	
289.400	-15.427	
289.500	-19.401	
289.600	-26.627	
289.700	-23.160	
289.800	-24.794	
289.900	-29.220	
290.000	-20.257	
290.100	-29.154	
290.200	-24.988	
290.300	-4.882	
290.400	-21.168	
290.500	-11.456	
290.600	-12.742	
290.700	-18.891	
290.800	-7.465	
290.900	-13.314	
291.000	-21.867	
291.100	-8.014	
291.200	-11.147	
291.300	-15.514	
291.400	-10.660	
291.500	-22.704	
291.600	-16.492	
291.700	-19.984	
291.800	-21.388	
291.900	-7.742	
292.000	-6.262	
292.100	-8.336	
292.200	-29.378	
292.300	-13.369	
292.400	-13.487	
292.500	-19.788	
292.600	-39.496	
292.700	-20.869	
292.800	-7.297	
292.900	-16.608	
293.000	-8.459	
293.100	-16.255	
293.200	-18.535	
293.300	-20.923	
293.400	-8.825	
293.500	-19.008	
293.600	-13.371	
293.700	-13.218	
293.800	-17.972	
293.900	-16.341	
294.000	-9.795	
294.100	-14.888	
294.200	-16.446	
294.300	-24.237	
294.400	-18.834	
294.500	-7.389	
294.600	-11.504	
294.700	-21.192	
294.800	-19.174	
294.900	-18.932	
295.000	0.956	
295.100	-14.788	
295.200	-16.750	
295.300	-25.870	
295.400	-4.173	
295.500	-13.878	
295.600	-13.311	
295.700	-15.451	
295.800	-7.826	
295.900	-12.585	
296.000	-7.395	
296.100	-24.877	
296.200	-15.769	
296.300	-4.187	
296.400	-16.065	
296.500	-16.424	
296.600	-23.638	
296.700	-25.319	
296.800	-23.555	
296.900	-13.267	
297.000	-12.121	
297.100	-15.791	
297.200	-12.109	
297.300	-24.381	
297.400	-2.161	
297.500	-20.556	
297.600	-25.418	
297.700	-4.584	
297.800	-18.924	
297.900	-13.350	
298.000	-31.737	
298.100	-21.332	
298.200	-11.000	
298.300	-23.426	
298.400	-19.750	
298.500	-16.656	
298.600	-10.013	
298.700	-14.222	
298.800	-9.392	
298.900	-8.090	
299.000	-14.072	
299.100	-6.885	
299.200	-15.050	
299.300	-28.737	
299.400	-15.773	
299.500	-1.105	
299.600	-28.313	
299.700	-15.386	
299.800	-3.628	
299.900	-23.994	
300.000	-21.048	
300.100	-9.335	
300.200	-19.353	
300.300	-18.327	
300.400	-7.419	
300.500	-18.471	
300.600	-9.732	
300.700	-17.775	
300.800	-24.521	
300.900	-12.022	
301.000	-6.861	
301.100	-27.693	
301.200	-3.177	
301.300	-24.948	
301.400	-11.444	
301.500	-10.868	
301.600	-9.598	
301.700	-16.500	
301.800	-7.319	
301.900	-24.120	
302.000	-6.698	
302.100	-16.269	
302.200	-16.185	
302.300	-18.449	
302.400	-7.424	
302.500	-20.013	
302.600	-7.451	
302.700	-18.183	
302.800	-9.743	
302.900	-36.156	
303.000	-17.438	
303.100	2.920	
303.200	-16.934	
303.300	-11.437	
303.400	-11.887	
303.500	-16.553	
303.600	-3.697	
303.700	-6.461	
303.800	-27.729	
303.900	-13.958	
304.000	-10.739	
304.100	-22.271	
304.200	-11.945	
304.300	-8.811	
304.400	-7.483	
304.500	-13.399	
304.600	-7.957	
304.700	-23.659	
304.800	-13.132	
304.900	-14.870	
305.000	-14.374	
305.100	-19.696	
305.200	-3.700	
305.300	-13.272	
305.400	-14.271	
305.500	-9.634	
305.600	-33.509	
305.700	6.366	
305.800	-32.043	
305.900	-0.594	
306.000	-11.041	
306.100	1.728	
306.200	-14.867	
306.300	-15.689	
306.400	-22.627	
306.500	-2.010	
306.600	-18.051	
306.700	-6.918	
306.800	-11.659	
306.900	-9.717	
307.000	-24.532	
307.100	-29.128	
307.200	-9.987	
307.300	-5.291	
307.400	-9.177	
307.500	-18.918	
307.600	-9.895	
307.700	-14.122	
307.800	-6.761	
307.900	-20.553	
308.000	-16.165	
308.100	-1.654	
308.200	-12.795	
308.300	-24.204	
308.400	-16.884	
308.500	-11.308	
308.600	4.635	
308.700	-21.066	
308.800	-22.304	
308.900	-14.832	
309.000	-2.224	
309.100	-22.841	
309.200	-11.692	
309.300	-17.253	
309.400	-6.826	
309.500	-10.144	
309.600	-1.240	
309.700	-7.185	
309.800	-19.730	
309.900	-14.472	
310.000	-3.696	
310.100	-25.214	
310.200	-17.689	
310.300	-15.183	
310.400	-7.976	
310.500	-28.183	
310.600	-4.688	
310.700	-1.386	
310.800	-34.893	
310.900	2.444	
311.000	-4.722	
311.100	-14.426	
311.200	-5.537	
311.300	-6.884	
311.400	-5.579	
311.500	-7.280	
311.600	-25.833	
311.700	-11.832	
311.800	1.966	
311.900	-3.475	
312.000	-12.459	
312.100	-25.734	
312.200	-10.452	
312.300	-15.844	
312.400	-7.156	
312.500	-13.382	
312.600	-18.637	
312.700	-12.353	
312.800	-20.844	
312.900	-20.741	
313.000	-19.310	
313.100	-10.283	
313.200	-15.109	
313.300	-15.247	
313.400	-23.171	
313.500	-8.332	
313.600	-9.594	
313.700	-28.708	
313.800	-14.991	
313.900	-13.536	
314.000	-7.211	
314.100	-18.361	
314.200	-5.675	
314.300	-13.247	
314.400	-11.410	
314.500	-8.840	
314.600	-21.283	
314.700	-16.221	
314.800	-24.343	
314.900	-20.153	
315.000	4.920	
315.100	-18.091	
315.200	-16.878	
315.300	-7.896	
315.400	-16.358	
315.500	-17.486	
315.600	-4.319	
315.700	-27.843	
315.800	-10.616	
315.900	-13.276	
316.000	-18.638	
316.100	-11.992	
316.200	-18.808	
316.300	-2.959	
316.400	-16.982	
316.500	-7.096	
316.600	-8.540	
316.700	-12.618	
316.800	-8.006	
316.900	-8.129	
317.000	-9.489	
317.100	-7.052	
317.200	-18.268	
317.300	-13.895	
317.400	-2.644	
317.500	-8.228	
317.600	-11.455	
317.700	-15.945	
317.800	-21.272	
317.900	-17.112	
318.000	-10.416	
318.100	-11.393	
318.200	-0.151	
318.300	-14.370	
318.400	-3.712	
318.500	-16.497	
318.600	-9.654	
318.700	-3.881	
318.800	-3.914	
318.900	-10.959	
319.000	-26.045	
319.100	-5.389	
319.200	-11.713	
319.300	-12.121	
319.400	-18.966	
319.500	6.448	
319.600	-9.154	
319.700	-10.653	
319.800	-13.661	
319.900	-12.507	
320.000	-11.601	
320.100	-8.572	
320.200	-20.099	
320.300	-13.236	
320.400	-9.189	
320.500	-3.980	
320.600	-27.268	
320.700	-11.350	
320.800	-8.733	
320.900	-4.207	
321.000	-6.914	
321.100	-25.878	
321.200	-4.296	
321.300	3.476	
321.400	-1.722	
321.500	-35.804	
321.600	-8.087	
321.700	-5.317	
321.800	-15.483	
321.900	-16.349	
322.000	-15.363	
322.100	-5.666	
322.200	2.000	
322.300	-19.204	
322.400	-16.633	
322.500	-7.690	
322.600	-13.381	
322.700	-6.624	
322.800	-14.807	
322.900	-8.564	
323.000	-5.071	
323.100	-8.231	
323.200	-13.886	
323.300	-5.866	
323.400	-31.738	
323.500	-8.899	
323.600	-4.884	
323.700	-24.725	
323.800	-23.644	
323.900	-2.834	
324.000	-13.080	
324.100	-13.212	
324.200	22.806	
324.300	-24.218	
324.400	-19.723	
324.500	-7.867	
324.600	-5.557	
324.700	-27.187	
324.800	12.438	
324.900	-6.593	
325.000	-16.333	
325.100	-9.785	
325.200	-9.046	
325.300	-15.211	
325.400	-29.135	
325.500	-23.892	
325.600	-21.572	
325.700	1.665	
325.800	-25.231	
325.900	-9.593	
326.000	-27.668	
326.100	3.658	
326.200	-0.818	
326.300	-16.859	
326.400	0.810	
326.500	-12.076	
326.600	-16.748	
326.700	-12.533	
326.800	-20.582	
326.900	-10.083	
327.000	-2.080	
327.100	-13.366	
327.200	-14.330	
327.300	-24.277	
327.400	-3.507	
327.500	-0.384	
327.600	-24.267	
327.700	-23.435	
327.800	-12.881	
327.900	-7.156	
328.000	-12.635	
328.100	-12.915	
328.200	-13.649	
328.300	-12.686	
328.400	-11.713	
328.500	-11.163	
328.600	-14.813	
328.700	-11.546	
328.800	-15.018	
328.900	-10.642	
329.000	-3.977	
329.100	-0.059	
329.200	-5.388	
329.300	-14.261	
329.400	-5.912	
329.500	-10.863	
329.600	-7.403	
329.700	-25.487	
329.800	-24.624	
329.900	6.110	
330.000	-31.089	
330.100	-2.153	
330.200	-2.626	
330.300	-1.472	
330.400	-16.784	
330.500	-1.260	
330.600	4.980	
330.700	13.855	
330.800	26.828	
330.900	21.197	
331.000	34.604	
331.100	47.074	
331.200	29.622	
331.300	42.865	
331.400	45.262	
331.500	33.304	
331.600	47.249	
331.700	40.566	
331.800	41.749	
331.900	32.429	
332.000	33.629	
332.100	57.225	
332.200	33.517	
332.300	44.012	
332.400	23.942	
332.500	43.914	
332.600	30.974	
332.700	43.125	
332.800	22.318	
332.900	34.517	
333.000	40.240	
333.100	41.578	
333.200	50.085	
333.300	26.840	
333.400	29.265	
333.500	21.152	
333.600	39.379	
333.700	21.371	
333.800	34.633	
333.900	29.702	
334.000	18.290	
334.100	36.754	
334.200	35.135	
334.300	25.990	
334.400	19.193	
334.500	39.802	
334.600	31.411	
334.700	4.417	
334.800	16.927	
334.900	29.068	
335.000	36.756	
335.100	22.542	
335.200	27.395	
335.300	27.663	
335.400	22.105	
335.500	25.606	
335.600	33.046	
335.700	23.947	
335.800	37.615	
335.900	26.728	
336.000	12.822	
336.100	32.132	
336.200	32.536	
336.300	27.966	
336.400	30.959	
336.500	31.238	
336.600	26.278	
336.700	31.022	
336.800	34.033	
336.900	34.074	
337.000	46.030	
337.100	20.811	
337.200	34.344	
337.300	32.971	
337.400	41.633	
337.500	37.605	
337.600	31.406	
337.700	28.010	
337.800	43.379	
337.900	34.665	
338.000	37.563	
338.100	36.818	
338.200	34.950	
338.300	59.838	
338.400	43.060	
338.500	33.280	
338.600	39.362	
338.700	36.075	
338.800	43.951	
338.900	35.474	
339.000	36.555	
339.100	34.949	
339.200	48.487	
339.300	41.075	
339.400	31.693	
339.500	33.533	
339.600	58.608	
339.700	32.670	
339.800	38.373	
339.900	50.112	
340.000	57.033	
340.100	44.453	
340.200	47.437	
340.300	54.727	
340.400	49.803	
340.500	38.343	
340.600	48.808	
340.700	37.436	
340.800	58.903	
340.900	46.870	
341.000	42.607	
341.100	57.421	
341.200	49.577	
341.300	51.500	
341.400	43.270	
341.500	48.013	
341.600	53.544	
341.700	47.982	
341.800	54.187	
341.900	50.095	
342.000	55.197	
342.100	57.686	
342.200	52.876	
342.300	52.926	
342.400	51.450	
342.500	44.514	
342.600	59.707	
342.700	55.107	
342.800	41.678	
342.900	46.505	
343.000	54.920	
343.100	29.204	
343.200	55.029	
343.300	44.946	
343.400	45.488	
343.500	56.801	
343.600	49.853	
343.700	49.353	
343.800	60.812	
343.900	53.379	
344.000	42.282	
344.100	66.874	
344.200	28.608	
344.300	54.968	
344.400	45.933	
344.500	57.182	
344.600	58.389	
344.700	52.321	
344.800	57.753	
344.900	59.404	
345.000	50.477	
345.100	56.736	
345.200	62.494	
345.300	51.221	
345.400	50.144	
345.500	49.005	
345.600	57.965	
345.700	58.517	
345.800	55.117	
345.900	51.521	
346.000	55.388	
346.100	60.428	
346.200	55.899	
346.300	37.613	
346.400	72.023	
346.500	47.965	
346.600	62.732	
346.700	52.146	
346.800	52.100	
346.900	61.533	
347.000	55.466	
347.100	61.891	
347.200	54.758	
347.300	57.699	
347.400	39.731	
347.500	48.774	
347.600	44.204	
347.700	44.834	
347.800	63.206	
347.900	48.417	
348.000	69.599	
348.100	49.880	
348.200	59.716	
348.300	55.062	
348.400	68.349	
348.500	20.071	
348.600	54.279	
348.700	62.117	
348.800	61.278	
348.900	52.342	
349.000	57.101	
349.100	39.356	
349.200	55.037	
349.300	55.742	
349.400	52.085	
349.500	65.796	
349.600	55.955	
349.700	57.976	
349.800	38.420	
349.900	57.501	
350.000	49.072	
350.100	49.226	
350.200	60.415	
350.300	50.457	
350.400	58.927	
350.500	51.237	
350.600	54.941	
350.700	52.280	
350.800	54.283	
350.900	48.743	
351.000	57.226	
351.100	56.315	
351.200	57.708	
351.300	49.981	
351.400	46.134	
351.500	47.414	
351.600	44.296	
351.700	50.272	
351.800	53.274	
351.900	42.427	
352.000	41.591	
352.100	58.868	
352.200	46.767	
352.300	64.966	
352.400	71.261	
352.500	59.012	
352.600	64.324	
352.700	56.682	
352.800	56.416	
352.900	50.660	
353.000	48.590	
353.100	53.503	
353.200	42.780	
353.300	47.591	
353.400	58.288	
353.500	59.014	
353.600	58.351	
353.700	54.638	
353.800	48.867	
353.900	46.401	
354.000	61.373	
354.100	65.737	
354.200	61.939	
354.300	47.836	
354.400	43.226	
354.500	64.531	
354.600	51.662	
354.700	51.257	
354.800	64.150	
354.900	47.275	
355.000	51.895	
355.100	61.540	
355.200	46.253	
355.300	49.016	
355.400	55.278	
355.500	46.266	
355.600	58.301	
355.700	52.899	
355.800	62.948	
355.900	54.564	
356.000	58.720	
356.100	60.649	
356.200	62.573	
356.300	63.814	
356.400	56.011	
356.500	49.239	
356.600	58.987	
356.700	41.804	
356.800	62.367	
356.900	35.507	
357.000	62.997	
357.100	48.280	
357.200	55.363	
357.300	62.589	
357.400	69.166	
357.500	44.794	
357.600	44.725	
357.700	54.907	
357.800	62.209	
357.900	53.358	
358.000	65.294	
358.100	49.615	
358.200	45.457	
358.300	52.811	
358.400	56.024	
358.500	54.688	
358.600	54.238	
358.700	60.971	
358.800	51.435	
358.900	54.042	
359.000	57.621	
359.100	60.164	
359.200	55.858	
359.300	54.843	
359.400	40.453	
359.500	56.296	
359.600	57.167	
359.700	54.202	
359.800	60.017	
359.900	66.464	
360.000	61.730	
360.100	52.190	
360.200	67.620	
360.300	58.499	
360.400	63.117	
360.500	51.368	
360.600	48.807	
360.700	64.840	
360.800	54.231	
360.900	53.018	
361.000	58.678	
361.100	47.084	
361.200	55.733	
361.300	64.148	
361.400	52.150	
361.500	49.955	
361.600	55.022	
361.700	47.411	
361.800	53.712	
361.900	39.807	
362.000	61.750	
362.100	65.065	
362.200	54.821	
362.300	57.441	
362.400	58.834	
362.500	56.257	
362.600	40.286	
362.700	35.494	
362.800	61.945	
362.900	45.396	
363.000	65.700	
363.100	56.816	
363.200	52.260	
363.300	65.589	
363.400	51.226	
363.500	50.172	
363.600	52.585	
363.700	53.421	
363.800	60.429	
363.900	43.056	
364.000	55.131	
364.100	53.392	
364.200	56.802	
364.300	36.830	
364.400	57.197	
364.500	51.449	
364.600	63.484	
364.700	62.840	
364.800	62.464	
364.900	53.558	
365.000	56.349	
365.100	46.231	
365.200	50.188	
365.300	47.441	
365.400	59.524	
365.500	56.872	
365.600	47.944	
365.700	52.577	
365.800	50.098	
365.900	46.897	
366.000	51.525	
366.100	56.554	
366.200	50.006	
366.300	60.580	
366.400	47.893	
366.500	46.178	
366.600	58.786	
366.700	67.079	
366.800	53.183	
366.900	41.422	
367.000	53.403	
367.100	48.361	
367.200	48.091	
367.300	57.546	
367.400	59.025	
367.500	47.733	
367.600	52.507	
367.700	44.766	
367.800	70.594	
367.900	54.221	
368.000	55.522	
368.100	56.650	
368.200	60.020	
368.300	50.934	
368.400	47.998	
368.500	61.117	
368.600	55.217	
368.700	58.944	
368.800	50.889	
368.900	57.865	
369.000	43.112	
369.100	45.668	
369.200	57.528	
369.300	62.558	
369.400	57.283	
369.500	42.243	
369.600	68.749	
369.700	54.672	
369.800	59.369	
369.900	41.941	
370.000	51.792	
370.100	57.302	
370.200	47.284	
370.300	52.520	
370.400	51.752	
370.500	45.533	
370.600	50.309	
370.700	62.207	
370.800	46.985	
370.900	53.210	
371.000	58.113	
371.100	51.898	
371.200	48.962	
371.300	63.234	
371.400	51.534	
371.500	50.872	
371.600	60.787	
371.700	65.510	
371.800	48.011	
371.900	36.885	
372.000	44.350	
372.100	49.220	
372.200	73.682	
372.300	56.243	
372.400	48.495	
372.500	54.210	
372.600	45.345	
372.700	61.142	
372.800	60.686	
372.900	60.531	
373.000	45.731	
373.100	46.289	
373.200	55.169	
373.300	54.896	
373.400	63.437	
373.500	42.904	
373.600	65.224	
373.700	54.930	
373.800	65.929	
373.900	48.264	
374.000	56.428	
374.100	49.085	
374.200	51.983	
374.300	55.798	
374.400	56.888	
374.500	67.424	
374.600	61.435	
374.700	52.654	
374.800	43.646	
374.900	60.246	
375.000	58.648	
375.100	42.902	
375.200	68.666	
375.300	53.492	
375.400	60.636	
375.500	51.286	
375.600	53.598	
375.700	51.671	
375.800	54.392	
375.900	42.307	
376.000	63.367	
376.100	35.658	
376.200	56.157	
376.300	61.561	
376.400	50.435	
376.500	56.617	
376.600	53.407	
376.700	50.360	
376.800	44.732	
376.900	60.784	
377.000	63.867	
377.100	38.557	
377.200	55.610	
377.300	62.400	
377.400	49.833	
377.500	63.971	
377.600	47.821	
377.700	63.897	
377.800	55.184	
377.900	60.871	
378.000	64.353	
378.100	52.393	
378.200	55.633	
378.300	60.969	
378.400	49.718	
378.500	51.784	
378.600	58.462	
378.700	52.271	
378.800	56.779	
378.900	53.328	
379.000	53.463	
379.100	55.731	
379.200	45.951	
379.300	44.565	
379.400	55.641	
379.500	58.517	
379.600	54.482	
379.700	48.696	
379.800	55.754	
379.900	47.081	
380.000	68.875	
380.100	61.233	
380.200	57.913	
380.300	56.110	
380.400	42.586	
380.500	54.246	
380.600	52.557	
380.700	56.248	
380.800	57.679	
380.900	50.682	
381.000	56.344	
381.100	65.567	
381.200	47.972	
381.300	43.621	
381.400	63.533	
381.500	63.038	
381.600	45.232	
381.700	64.928	
381.800	52.586	
381.900	59.458	
382.000	64.473	
382.100	54.468	
382.200	43.824	
382.300	66.486	
382.400	57.398	
382.500	44.067	
382.600	64.915	
382.700	42.571	
382.800	52.150	
382.900	49.025	
383.000	68.515	
383.100	35.810	
383.200	52.830	
383.300	65.209	
383.400	63.480	
383.500	58.813	
383.600	38.732	
383.700	49.262	
383.800	44.115	
383.900	53.293	
384.000	50.052	
384.100	53.210	
384.200	51.629	
384.300	61.296	
384.400	53.267	
384.500	63.842	
384.600	27.114	
384.700	56.080	
384.800	67.712	
384.900	56.557	
385.000	45.201	
385.100	62.176	
385.200	42.255	
385.300	61.527	
385.400	49.782	
385.500	66.613	
385.600	55.555	
385.700	59.401	
385.800	61.507	
385.900	41.175	
386.000	53.321	
386.100	52.957	
386.200	54.092	
386.300	48.910	
386.400	50.052	
386.500	69.210	
386.600	61.121	
386.700	45.721	
386.800	37.942	
386.900	61.249	
387.000	57.872	
387.100	39.554	
387.200	63.824	
387.300	53.370	
387.400	44.291	
387.500	54.155	
387.600	58.016	
387.700	50.084	
387.800	54.038	
387.900	50.818	
388.000	55.202	
388.100	62.700	
388.200	56.236	
388.300	47.414	
388.400	45.634	
388.500	56.721	
388.600	50.617	
388.700	45.179	
388.800	53.733	
388.900	41.739	
389.000	66.758	
389.100	54.872	
389.200	38.787	
389.300	58.212	
389.400	33.959	
389.500	71.556	
389.600	63.247	
389.700	61.418	
389.800	58.676	
389.900	56.308	
390.000	53.772	
390.100	39.293	
390.200	39.701	
390.300	48.629	
390.400	39.132	
390.500	57.961	
390.600	39.842	
390.700	51.971	
390.800	47.115	
390.900	33.956	
391.000	23.463	
391.100	38.192	
391.200	16.850	
391.300	7.931	
391.400	13.720	
391.500	-4.853	
391.600	-9.444	
391.700	9.617	
391.800	-19.787	
391.900	-20.178	
392.000	-23.016	
392.100	-23.102	
392.200	-22.078	
392.300	-31.276	
392.400	-24.941	
392.500	-49.807	
392.600	-40.137	
392.700	-23.403	
392.800	-51.282	
392.900	-53.745	
393.000	-48.614	
393.100	-52.699	
393.200	-47.193	
393.300	-50.735	
393.400	-56.873	
393.500	-45.202	
393.600	-43.486	
393.700	-63.644	
393.800	-43.877	
393.900	-55.083	
394.000	-53.920	
394.100	-45.592	
394.200	-38.508	
394.300	-68.209	
394.400	-57.705	
394.500	-45.789	
394.600	-55.656	
394.700	-58.034	
394.800	-49.293	
394.900	-43.031	
395.000	-40.791	
395.100	-47.291	
395.200	-39.074	
395.300	-53.526	
395.400	-52.893	
395.500	-45.022	
395.600	-46.495	
395.700	-46.656	
395.800	-50.904	
395.900	-57.965	
396.000	-40.735	
396.100	-49.487	
396.200	-49.140	
396.300	-53.829	
396.400	-47.949	
396.500	-47.113	
396.600	-58.764	
396.700	-33.918	
396.800	-56.293	
396.900	-38.532	
397.000	-49.405	
397.100	-32.613	
397.200	-49.630	
397.300	-50.027	
397.400	-44.439	
397.500	-54.191	
397.600	-40.945	
397.700	-43.071	
397.800	-48.971	
397.900	-34.856	
398.000	-50.146	
398.100	-49.075	
398.200	-52.286	
398.300	-31.216	
398.400	-40.648	
398.500	-47.575	
398.600	-41.450	
398.700	-48.871	
398.800	-34.858	
398.900	-51.035	
399.000	-40.836	
399.100	-47.256	
399.200	-47.293	
399.300	-45.617	
399.400	-45.608	
399.500	-40.443	
399.600	-40.209	
399.700	-56.472	
399.800	-33.902	
399.900	-52.674	
400.000	-43.212	
400.100	-40.602	
400.200	-45.150	
400.300	-33.560	
400.400	-63.333	
400.500	-43.087	
400.600	-34.187	
400.700	-38.530	
400.800	-30.937	
400.900	-50.109	
401.000	-41.905	
401.100	-47.719	
401.200	-31.950	
401.300	-38.459	
401.400	-45.844	
401.500	-50.327	
401.600	-30.647	
401.700	-33.282	
401.800	-40.932	
401.900	-53.591	
402.000	-34.126	
402.100	-50.716	
402.200	-50.604	
402.300	-23.108	
402.400	-39.827	
402.500	-40.604	
402.600	-38.434	
402.700	-44.150	
402.800	-45.254	
402.900	-47.245	
403.000	-42.778	
403.100	-45.889	
403.200	-37.220	
403.300	-39.579	
403.400	-40.187	
403.500	-42.094	
403.600	-40.647	
403.700	-57.115	
403.800	-40.075	
403.900	-34.340	
404.000	-36.784	
404.100	-43.847	
404.200	-34.116	
404.300	-49.020	
404.400	-33.320	
404.500	-42.512	
404.600	-33.846	
404.700	-37.783	
404.800	-27.468	
404.900	-51.913	
405.000	-39.212	
405.100	-38.508	
405.200	-39.556	
405.300	-37.534	
405.400	-36.593	
405.500	-51.022	
405.600	-46.244	
405.700	-29.525	
405.800	-27.552	
405.900	-41.877	
406.000	-38.347	
406.100	-36.541	
406.200	-35.478	
406.300	-23.515	
406.400	-38.875	
406.500	-34.760	
406.600	-41.526	
406.700	-38.761	
406.800	-42.196	
406.900	-34.582	
407.000	-42.055	
407.100	-30.273	
407.200	-25.314	
407.300	-47.083	
407.400	-33.886	
407.500	-43.110	
407.600	-32.533	
407.700	-34.052	
407.800	-28.165	
407.900	-43.434	
408.000	-47.075	
408.100	-21.201	
408.200	-28.880	
408.300	-38.795	
408.400	-33.845	
408.500	-47.210	
408.600	-36.239	
408.700	-26.630	
408.800	-31.665	
408.900	-45.871	
409.000	-33.169	
409.100	-39.618	
409.200	-24.994	
409.300	-51.224	
409.400	-29.925	
409.500	-29.964	
409.600	-37.815	
409.700	-32.639	
409.800	-39.722	
409.900	-39.344	
410.000	-32.135	
410.100	-36.673	
410.200	-20.318	
410.300	-40.929	
410.400	-30.052	
410.500	-23.616	
410.600	-43.567	
410.700	-20.160	
410.800	-37.128	
410.900	-33.729	
411.000	-39.391	
411.100	-24.808	
411.200	-46.994	
411.300	-28.550	
411.400	-37.337	
411.500	-26.371	
411.600	-30.205	
411.700	-28.276	
411.800	-38.844	
411.900	-42.600	
412.000	-21.780	
412.100	-25.072	
412.200	-28.313	
412.300	-42.727	
412.400	-20.459	
412.500	-42.191	
412.600	-23.277	
412.700	-38.898	
412.800	-48.459	
412.900	-20.757	
413.000	-23.481	
413.100	-11.110	
413.200	-33.161	
413.300	-47.463	
413.400	-42.645	
413.500	-19.456	
413.600	-22.118	
413.700	-38.995	
413.800	-28.255	
413.900	-32.729	
414.000	-28.104	
414.100	-41.030	
414.200	-27.828	
414.300	-39.064	
414.400	-40.287	
414.500	-21.677	
414.600	-26.817	
414.700	-38.376	
414.800	-27.140	
414.900	-25.784	
415.000	-26.474	
415.100	-26.008	
415.200	-35.617	
415.300	-28.542	
415.400	-29.285	
415.500	-22.107	
415.600	-25.091	
415.700	-37.516	
415.800	-28.773	
415.900	-24.926	
416.000	-39.955	
416.100	-31.645	
416.200	-35.166	
416.300	-19.912	
416.400	-14.984	
416.500	-14.900	
416.600	-22.383	
416.700	-30.021	
416.800	-29.485	
416.900	-31.048	
417.000	-37.224	
417.100	-23.861	
417.200	-21.488	
417.300	-30.230	
417.400	-20.335	
417.500	-26.318	
417.600	-19.620	
417.700	-25.411	
417.800	-27.427	
417.900	-31.817	
418.000	-26.301	
418.100	-16.729	
418.200	-33.397	
418.300	-28.055	
418.400	-32.875	
418.500	-17.624	
418.600	-27.409	
418.700	-25.862	
418.800	-33.424	
418.900	-22.657	
419.000	-21.254	
419.100	-44.949	
419.200	-9.840	
419.300	-15.082	
419.400	-39.033	
419.500	-19.449	
419.600	-32.855	
419.700	-26.354	
419.800	-34.195	
419.900	-27.991	
420.000	-21.625	
420.100	-18.710	
420.200	-22.799	
420.300	-30.400	
420.400	-31.060	
420.500	-18.904	
420.600	-39.161	
420.700	-22.894	
420.800	-23.604	
420.900	-25.519	
421.000	-28.107	
421.100	-29.154	
421.200	-33.651	
421.300	-24.394	
421.400	-24.212	
421.500	-25.640	
421.600	-36.823	
421.700	-33.796	
421.800	-29.575	
421.900	-29.063	
422.000	-14.276	
422.100	-38.538	
422.200	-20.277	
422.300	-29.429	
422.400	-19.613	
422.500	-26.284	
422.600	-30.447	
422.700	-24.272	
422.800	-15.950	
422.900	-23.233	
423.000	-12.928	
423.100	-23.064	
423.200	-23.155	
423.300	-36.839	
423.400	-32.808	
423.500	-10.404	
423.600	-17.035	
423.700	-18.982	
423.800	-21.029	
423.900	-25.705	
424.000	-38.405	
424.100	-12.704	
424.200	-11.079	
424.300	-23.099	
424.400	-11.943	
424.500	-40.525	
424.600	-23.631	
424.700	-12.834	
424.800	-25.149	
424.900	-28.874	
425.000	-15.706	
425.100	-14.590	
425.200	-37.485	
425.300	-28.648	
425.400	-7.718	
425.500	-14.270	
425.600	-26.734	
425.700	-6.480	
425.800	-27.388	
425.900	-37.815	
426.000	-6.864	
426.100	-30.493	
426.200	-17.054	
426.300	-8.991	
426.400	-27.691	
426.500	-28.035	
426.600	-12.842	
426.700	-17.916	
426.800	-15.194	
426.900	-21.377	
427.000	-25.206	
427.100	-21.816	
427.200	-26.149	
427.300	-21.207	
427.400	-23.913	
427.500	-24.480	
427.600	-10.286	
427.700	-28.824	
427.800	-19.044	
427.900	-30.020	
428.000	-5.180	
428.100	-20.540	
428.200	-22.229	
428.300	-33.307	
428.400	-23.797	
428.500	-36.381	
428.600	3.769	
428.700	-27.288	
428.800	-11.209	
428.900	-31.024	
429.000	-14.492	
429.100	-30.712	
429.200	-10.676	
429.300	-29.153	
429.400	-14.348	
429.500	-28.301	
429.600	-16.447	
429.700	-30.370	
429.800	-15.821	
429.900	-16.576	
430.000	-20.439	
430.100	-21.860	
430.200	-25.515	
430.300	-11.967	
430.400	-29.525	
430.500	-17.551	
430.600	-12.093	
430.700	-24.355	
430.800	-22.721	
430.900	-3.641	
431.000	-23.759	
431.100	-24.610	
431.200	-20.500	
431.300	-21.277	
431.400	-26.518	
431.500	-25.086	
431.600	-9.151	
431.700	-10.654	
431.800	-26.529	
431.900	-12.142	
432.000	-19.063	
432.100	-34.835	
432.200	-19.647	
432.300	-25.174	
432.400	-31.761	
432.500	-19.142	
432.600	-18.090	
432.700	-39.321	
432.800	-9.073	
432.900	-35.195	
433.000	-24.896	
433.100	-4.650	
433.200	-32.104	
433.300	-30.441	
433.400	-17.772	
433.500	-19.865	
433.600	-19.883	
433.700	-33.001	
433.800	-14.480	
433.900	-13.148	
434.000	-18.760	
434.100	-26.671	
434.200	-12.868	
434.300	-31.883	
434.400	-27.622	
434.500	-16.306	
434.600	-21.411	
434.700	-8.712	
434.800	-28.008	
434.900	-23.054	
435.000	-10.383	
435.100	-8.243	
435.200	-12.715	
435.300	-25.022	
435.400	-15.664	
435.500	-17.506	
435.600	-9.139	
435.700	-29.989	
435.800	-21.395	
435.900	-18.163	
436.000	-26.115	
436.100	-12.419	
436.200	-13.465	
436.300	-29.127	
436.400	-30.002	
436.500	-16.799	
436.600	-11.889	
436.700	-21.414	
436.800	-20.552	
436.900	-17.721	
437.000	-19.720	
437.100	-11.550	
437.200	-23.992	
437.300	-20.834	
437.400	-25.790	
437.500	-13.289	
437.600	-34.158	
437.700	-23.440	
437.800	-24.465	
437.900	-19.892	
438.000	-33.892	
438.100	-18.013	
438.200	1.380	
438.300	-17.996	
438.400	-15.229	
438.500	-18.963	
438.600	-2.251	
438.700	-30.119	
438.800	-11.051	
438.900	-23.616	
439.000	-13.259	
439.100	-21.777	
439.200	-16.893	
439.300	-18.502	
439.400	-15.226	
439.500	-28.899	
439.600	-14.636	
439.700	-11.492	
439.800	-24.323	
439.900	-7.211	
440.000	-8.867	
440.100	-17.139	
440.200	-32.212	
440.300	-2.130	
440.400	-24.572	
440.500	-13.269	
440.600	-10.664	
440.700	-28.031	
440.800	-25.530	
440.900	-25.266	
441.000	-7.084	
441.100	-12.186	
441.200	-20.406	
441.300	-23.236	
441.400	-12.487	
441.500	-15.653	
441.600	-8.697	
441.700	-17.491	
441.800	-18.022	
441.900	-11.086	
442.000	-24.590	
442.100	-20.996	
442.200	-22.263	
442.300	-20.556	
442.400	-9.228	
442.500	-13.472	
442.600	-10.436	
442.700	-16.827	
442.800	-23.555	
442.900	-18.473	
443.000	-11.637	
443.100	-17.416	
443.200	-13.268	
443.300	-13.883	
443.400	-18.582	
443.500	-17.729	
443.600	-20.344	
443.700	-11.625	
443.800	-6.846	
443.900	-6.705	
444.000	-19.373	
444.100	-13.160	
444.200	-37.856	
444.300	-26.933	
444.400	-14.401	
444.500	-29.669	
444.600	-11.155	
444.700	2.695	
444.800	-25.464	
444.900	-11.845	
445.000	-8.612	
445.100	-19.843	
445.200	-15.806	
445.300	-7.741	
445.400	-19.628	
445.500	-31.697	
445.600	5.345	
445.700	-25.210	
445.800	-20.203	
445.900	-25.372	
446.000	-10.038	
446.100	-23.626	
446.200	-9.094	
446.300	-30.428	
446.400	-17.881	
446.500	-16.688	
446.600	-12.948	
446.700	-17.493	
446.800	-18.627	
446.900	-15.166	
447.000	-14.566	
447.100	-13.352	
447.200	-11.559	
447.300	-14.580	
447.400	-18.236	
447.500	-28.999	
447.600	-13.381	
447.700	-16.579	
447.800	-8.956	
447.900	-13.830	
448.000	-5.864	
448.100	-8.429	
448.200	-7.711	
448.300	-20.488	
448.400	-7.345	
448.500	-20.365	
448.600	-26.262	
448.700	-16.304	
448.800	-11.385	
448.900	-24.366	
449.000	-14.594	
449.100	2.335	
449.200	-28.666	
449.300	-7.363	
449.400	-29.428	
449.500	-18.353	
449.600	-14.604	
449.700	-13.775	
449.800	-7.395	
449.900	-16.888	
450.000	-7.783	
450.100	-22.795	
450.200	-6.241	
450.300	-11.583	
450.400	-16.745	
450.500	-9.132	
450.600	-17.107	
450.700	-22.100	
450.800	-5.285	
450.900	-10.808	
451.000	-22.174	
451.100	-14.836	
451.200	-5.590	
451.300	-14.223	
451.400	-17.539	
451.500	2.748	
451.600	-11.683	
451.700	-20.345	
451.800	-35.952	
451.900	-15.021	
452.000	-13.847	
452.100	-21.102	
452.200	-18.429	
452.300	-25.804	
452.400	-13.771	
452.500	-18.619	
452.600	-26.356	
452.700	-11.857	
452.800	-8.579	
452.900	-14.876	
453.000	-3.456	
453.100	-20.294	
453.200	-17.684	
453.300	-14.737	
453.400	-14.314	
453.500	-31.318	
453.600	-27.039	
453.700	-9.296	
453.800	-15.362	
453.900	-26.297	
454.000	-9.180	
454.100	-12.510	
454.200	-6.425	
454.300	-15.063	
454.400	-32.758	
454.500	-21.793	
454.600	-7.447	
454.700	-10.900	
454.800	-14.075	
454.900	-6.784	
455.000	-15.021	
455.100	-17.636	
455.200	-22.547	
455.300	-6.479	
455.400	-20.816	
455.500	-8.241	
455.600	-12.404	
455.700	-24.176	
455.800	-15.449	
455.900	-38.395	
456.000	-19.018	
456.100	-8.254	
456.200	-10.635	
456.300	-40.595	
456.400	-10.798	
456.500	-22.225	
456.600	-11.645	
456.700	-14.195	
456.800	4.522	
456.900	-16.704	
457.000	-32.622	
457.100	-11.237	
457.200	-7.369	
457.300	-31.917	
457.400	-10.974	
457.500	-14.312	
457.600	-11.497	
457.700	-13.220	
457.800	3.799	
457.900	-10.218	
458.000	-12.328	
458.100	-12.089	
458.200	-24.126	
458.300	-20.696	
458.400	-17.637	
458.500	-7.374	
458.600	-13.972	
458.700	-25.187	
458.800	-12.580	
458.900	-0.727	
459.000	-16.972	
459.100	-15.045	
459.200	-2.698	
459.300	-16.351	
459.400	-16.816	
459.500	-12.043	
459.600	-8.307	
459.700	-16.714	
459.800	-15.385	
459.900	-16.548	
460.000	-25.521	
460.100	-20.603	
460.200	-10.173	
460.300	-23.159	
460.400	-3.850	
460.500	-1.404	
460.600	-12.617	
460.700	-25.213	
460.800	-6.740	
460.900	-16.161	
461.000	-7.759	
461.100	-15.710	
461.200	-9.125	
461.300	-25.674	
461.400	-11.375	
461.500	-15.587	
461.600	-14.444	
461.700	-18.561	
461.800	-6.929	
461.900	-22.659	
462.000	-8.444	
462.100	-4.590	
462.200	-13.371	
462.300	-5.541	
462.400	-16.413	
462.500	-5.554	
462.600	-9.563	
462.700	-20.910	
462.800	-25.257	
462.900	-14.835	
463.000	-1.432	
463.100	-24.538	
463.200	-13.874	
463.300	-12.505	
463.400	-20.124	
463.500	-21.044	
463.600	-2.406	
463.700	-19.243	
463.800	-12.550	
463.900	-20.755	
464.000	-15.304	
464.100	-14.366	
464.200	-9.613	
464.300	-6.831	
464.400	-4.152	
464.500	-16.003	
464.600	-17.913	
464.700	-21.093	
464.800	-11.176	
464.900	-16.401	
465.000	-24.929	
465.100	-8.481	
465.200	-10.364	
465.300	-15.934	
465.400	-7.615	
465.500	-10.078	
465.600	-26.291	
465.700	-14.193	
465.800	-20.044	
465.900	-22.344	
466.000	-13.619	
466.100	-9.979	
466.200	-14.311	
466.300	-12.238	
466.400	-13.448	
466.500	-17.060	
466.600	-11.908	
466.700	-15.801	
466.800	-11.771	
466.900	-16.188	
467.000	-8.131	
467.100	-11.338	
467.200	-12.516	
467.300	-17.796	
467.400	-8.359	
467.500	-5.203	
467.600	-9.023	
467.700	-12.914	
467.800	-18.194	
467.900	-5.942	
468.000	-12.718	
468.100	-7.041	
468.200	-19.143	
468.300	-18.199	
468.400	-4.606	
468.500	-16.290	
468.600	-23.131	
468.700	-11.480	
468.800	-18.514	
468.900	-12.420	
469.000	-14.735	
469.100	-14.750	
469.200	-10.880	
469.300	-7.976	
469.400	-8.786	
469.500	-7.576	
469.600	-27.701	
469.700	-6.794	
469.800	-8.600	
469.900	-7.656	
470.000	-20.957	
470.100	-16.812	
470.200	-24.704	
470.300	-3.113	
470.400	-8.262	
470.500	-2.699	
470.600	-20.256	
470.700	-16.732	
470.800	-16.525	
470.900	-22.867	
471.000	-11.256	
471.100	-11.671	
471.200	-17.611	
471.300	-12.626	
471.400	-14.448	
471.500	-7.389	
471.600	-15.682	
471.700	-20.371	
471.800	-1.442	
471.900	0.790	
472.000	-9.750	
472.100	-24.191	
472.200	-22.449	
472.300	-15.565	
472.400	-21.217	
472.500	-4.373	
472.600	-21.841	
472.700	-21.537	
472.800	-16.623	
472.900	-19.800	
473.000	-1.252	
473.100	-11.083	
473.200	-14.215	
473.300	-20.473	
473.400	-24.776	
473.500	-5.251	
473.600	-5.887	
473.700	5.777	
473.800	-11.309	
473.900	-12.276	
474.000	-14.813	
474.100	-17.124	
474.200	-22.463	
474.300	-7.714	
474.400	-8.158	
474.500	-8.038	
474.600	-8.119	
474.700	4.434	
474.800	-7.454	
474.900	-12.450	
475.000	-8.295	
475.100	-8.809	
475.200	-13.925	
475.300	-12.295	
475.400	-8.071	
475.500	-16.767	
475.600	-22.869	
475.700	-5.994	
475.800	-14.364	
475.900	-9.484	
476.000	-14.549	
476.100	-16.712	
476.200	-18.583	
476.300	2.003	
476.400	-0.545	
476.500	-5.895	
476.600	-23.437	
476.700	-11.647	
476.800	-6.576	
476.900	-16.022	
477.000	-7.884	
477.100	-6.575	
477.200	-18.812	
477.300	-1.384	
477.400	-4.740	
477.500	-25.067	
477.600	-9.823	
477.700	-8.708	
477.800	-5.653	
477.900	-16.466	
478.000	-21.285	
478.100	-12.427	
478.200	-14.325	
478.300	-0.969	
478.400	-10.738	
478.500	-14.633	
478.600	-6.331	
478.700	-24.046	
478.800	-9.218	
478.900	-14.805	
479.000	-5.449	
479.100	-17.479	
479.200	-15.344	
479.300	-2.597	
479.400	-22.489	
479.500	-7.483	
479.600	-4.285	
479.700	-10.990	
479.800	-20.667	
479.900	-16.229	
480.000	-12.711	
480.100	-26.226	
480.200	-8.738	
480.300	-8.409	
480.400	-14.203	
480.500	6.602	
480.600	11.113	
480.700	-3.889	
480.800	22.406	
480.900	15.943	
481.000	24.372	
481.100	49.421	
481.200	23.192	
481.300	49.402	
481.400	23.646	
481.500	33.139	
481.600	35.594	
481.700	43.988	
481.800	27.480	
481.900	52.325	
482.000	54.934	
482.100	30.768	
482.200	26.488	
482.300	46.273	
482.400	41.243	
482.500	45.686	
482.600	43.373	
482.700	33.416	
482.800	34.801	
482.900	36.016	
483.000	33.229	
483.100	33.737	
483.200	34.960	
483.300	34.444	
483.400	36.434	
483.500	18.538	
483.600	25.257	
483.700	30.889	
483.800	20.013	
483.900	24.183	
484.000	34.515	
484.100	18.920	
484.200	32.432	
484.300	24.634	
484.400	29.351	
484.500	25.634	
484.600	38.218	
484.700	32.654	
484.800	31.371	
484.900	13.981	
485.000	33.706	
485.100	25.795	
485.200	36.204	
485.300	12.835	
485.400	32.626	
485.500	37.317	
485.600	21.069	
485.700	25.414	
485.800	35.818	
485.900	35.747	
486.000	38.269	
486.100	35.898	
486.200	39.071	
486.300	35.799	
486.400	38.603	
486.500	16.327	
486.600	29.557	
486.700	29.970	
486.800	31.596	
486.900	27.659	
487.000	32.362	
487.100	34.183	
487.200	26.901	
487.300	40.070	
487.400	21.444	
487.500	37.205	
487.600	41.202	
487.700	34.516	
487.800	44.308	
487.900	33.596	
488.000	44.374	
488.100	35.764	
488.200	46.199	
488.300	33.374	
488.400	38.452	
488.500	41.936	
488.600	36.554	
488.700	43.986	
488.800	35.928	
488.900	21.866	
489.000	41.959	
489.100	39.884	
489.200	41.932	
489.300	52.697	
489.400	34.787	
489.500	48.532	
489.600	42.197	
489.700	48.484	
489.800	27.784	
489.900	48.422	
490.000	44.797	
490.100	41.671	
490.200	45.234	
490.300	46.692	
490.400	41.793	
490.500	44.271	
490.600	55.686	
490.700	54.444	
490.800	44.311	
490.900	47.905	
491.000	46.028	
491.100	46.145	
491.200	57.861	
491.300	66.293	
491.400	33.213	
491.500	56.393	
491.600	52.611	
491.700	39.315	
491.800	53.197	
491.900	53.977	
492.000	45.281	
492.100	66.355	
492.200	63.230	
492.300	67.406	
492.400	38.822	
492.500	51.663	
492.600	49.378	
492.700	58.772	
492.800	41.838	
492.900	61.509	
493.000	43.092	
493.100	61.903	
493.200	54.380	
493.300	52.161	
493.400	53.129	
493.500	46.835	
493.600	58.796	
493.700	45.227	
493.800	44.919	
493.900	65.746	
494.000	52.601	
494.100	62.874	
494.200	57.632	
494.300	59.433	
494.400	45.591	
494.500	56.725	
494.600	53.419	
494.700	51.589	
494.800	50.971	
494.900	38.195	
495.000	48.160	
495.100	67.598	
495.200	53.871	
495.300	34.733	
495.400	46.615	
495.500	58.882	
495.600	51.622	
495.700	57.818	
495.800	48.905	
495.900	56.455	
496.000	42.424	
496.100	48.235	
496.200	55.298	
496.300	49.215	
496.400	52.300	
496.500	55.174	
496.600	51.273	
496.700	61.202	
496.800	35.688	
496.900	63.934	
497.000	57.670	
497.100	57.200	
497.200	56.372	
497.300	58.032	
497.400	53.311	
497.500	41.369	
497.600	74.234	
497.700	50.872	
497.800	52.540	
497.900	48.301	
498.000	58.116	
498.100	55.074	
498.200	42.412	
498.300	52.594	
498.400	65.357	
498.500	55.491	
498.600	49.336	
498.700	53.255	
498.800	50.334	
498.900	48.994	
499.000	51.388	
499.100	60.501	
499.200	52.596	
499.300	48.235	
499.400	60.027	
499.500	47.082	
499.600	61.165	
499.700	57.986	
499.800	44.308	
499.900	55.590	
500.000	60.561	
500.100	59.019	
500.200	56.639	
500.300	44.816	
500.400	56.744	
500.500	53.428	
500.600	49.742	
500.700	61.636	
500.800	50.404	
500.900	59.786	
501.000	61.258	
501.100	54.877	
501.200	50.197	
501.300	51.031	
501.400	53.190	
501.500	58.478	
501.600	46.547	
501.700	56.199	
501.800	55.370	
501.900	36.754	
502.000	51.782	
502.100	48.952	
502.200	65.146	
502.300	56.460	
502.400	51.579	
502.500	37.747	
502.600	54.846	
502.700	59.603	
502.800	63.212	
502.900	50.166	
503.000	55.009	
503.100	53.858	
503.200	49.970	
503.300	53.248	
503.400	44.833	
503.500	58.429	
503.600	68.043	
503.700	39.336	
503.800	46.093	
503.900	66.459	
504.000	55.269	
504.100	67.317	
504.200	53.505	
504.300	66.091	
504.400	53.425	
504.500	50.599	
504.600	59.513	
504.700	53.450	
504.800	38.915	
504.900	46.602	
505.000	71.623	
505.100	61.944	
505.200	65.988	
505.300	56.210	
505.400	56.952	
505.500	57.694	
505.600	54.628	
505.700	58.394	
505.800	35.202	
505.900	67.288	
506.000	59.640	
506.100	62.455	
506.200	49.308	
506.300	60.152	
506.400	47.072	
506.500	47.048	
506.600	53.914	
506.700	56.352	
506.800	59.229	
506.900	57.446	
507.000	49.435	
507.100	58.455	
507.200	55.042	
507.300	46.153	
507.400	58.921	
507.500	60.526	
507.600	56.856	
507.700	52.288	
507.800	64.318	
507.900	60.812	
508.000	52.758	
508.100	53.417	
508.200	51.792	
508.300	46.954	
508.400	50.008	
508.500	56.369	
508.600	65.858	
508.700	41.075	
508.800	47.030	
508.900	60.691	
509.000	49.631	
509.100	51.680	
509.200	55.502	
509.300	53.460	
509.400	59.516	
509.500	50.555	
509.600	62.785	
509.700	47.963	
509.800	53.441	
509.900	55.456	
510.000	57.956	
510.100	49.188	
510.200	69.209	
510.300	55.283	
510.400	49.008	
510.500	50.384	
510.600	55.730	
510.700	53.757	
510.800	60.484	
510.900	54.450	
511.000	55.688	
511.100	59.851	
511.200	57.758	
511.300	55.301	
511.400	62.362	
511.500	46.341	
511.600	44.254	
511.700	54.167	
511.800	41.158	
511.900	47.050	
512.000	51.956	
512.100	51.754	
512.200	71.779	
512.300	58.296	
512.400	37.221	
512.500	47.780	
512.600	66.742	
512.700	55.650	
512.800	57.973	
512.900	63.679	
513.000	54.262	
513.100	51.652	
513.200	57.415	
513.300	54.854	
513.400	50.586	
513.500	54.853	
513.600	58.132	
513.700	53.035	
513.800	49.563	
513.900	59.213	
514.000	47.941	
514.100	60.467	
514.200	54.986	
514.300	45.022	
514.400	42.576	
514.500	56.748	
514.600	60.938	
514.700	61.965	
514.800	57.539	
514.900	47.121	
515.000	53.673	
515.100	60.844	
515.200	56.033	
515.300	49.245	
515.400	61.331	
515.500	59.776	
515.600	53.669	
515.700	52.071	
515.800	59.601	
515.900	54.500	
516.000	45.473	
516.100	52.748	
516.200	51.522	
516.300	66.203	
516.400	45.712	
516.500	58.023	
516.600	61.869	
516.700	59.894	
516.800	52.523	
516.900	43.094	
517.000	51.291	
517.100	55.968	
517.200	58.865	
517.300	56.283	
517.400	39.765	
517.500	63.462	
517.600	62.774	
517.700	49.951	
517.800	63.349	
517.900	49.375	
518.000	53.827	
518.100	50.052	
518.200	72.759	
518.300	50.741	
518.400	49.903	
518.500	48.551	
518.600	57.308	
518.700	59.014	
518.800	58.667	
518.900	45.131	
519.000	53.297	
519.100	44.483	
519.200	50.054	
519.300	65.168	
519.400	52.370	
519.500	63.517	
519.600	53.072	
519.700	58.021	
519.800	53.240	
519.900	50.211	
520.000	58.190	
520.100	60.754	
520.200	55.293	
520.300	39.610	
520.400	53.139	
520.500	67.684	
520.600	54.693	
520.700	52.950	
520.800	43.187	
520.900	64.705	
521.000	40.435	
521.100	44.328	
521.200	69.871	
521.300	57.192	
521.400	43.639	
521.500	44.451	
521.600	46.977	
521.700	58.753	
521.800	58.099	
521.900	49.714	
522.000	54.858	
522.100	55.531	
522.200	58.376	
522.300	60.728	
522.400	48.238	
522.500	55.455	
522.600	51.653	
522.700	43.754	
522.800	55.732	
522.900	51.492	
523.000	56.556	
523.100	61.635	
523.200	51.149	
523.300	55.109	
523.400	66.123	
523.500	52.151	
523.600	39.292	
523.700	51.628	
523.800	46.025	
523.900	64.452	
524.000	47.015	
524.100	64.271	
524.200	55.909	
524.300	58.422	
524.400	54.670	
524.500	49.908	
524.600	57.450	
524.700	64.132	
524.800	55.722	
524.900	46.695	
525.000	63.467	
525.100	52.555	
525.200	50.362	
525.300	59.866	
525.400	46.487	
525.500	65.295	
525.600	60.770	
525.700	51.269	
525.800	46.281	
525.900	55.576	
526.000	56.836	
526.100	54.314	
526.200	66.115	
526.300	61.600	
526.400	48.232	
526.500	51.013	
526.600	54.933	
526.700	71.894	
526.800	55.122	
526.900	51.716	
527.000	57.131	
527.100	63.195	
527.200	56.348	
527.300	45.972	
527.400	62.022	
527.500	59.762	
527.600	62.096	
527.700	51.494	
527.800	51.928	
527.900	54.469	
528.000	57.077	
528.100	59.583	
528.200	45.050	
528.300	71.678	
528.400	60.429	
528.500	42.104	
528.600	55.428	
528.700	48.144	
528.800	60.358	
528.900	51.371	
529.000	58.255	
529.100	44.344	
529.200	44.753	
529.300	56.191	
529.400	56.402	
529.500	63.485	
529.600	49.133	
529.700	56.905	
529.800	57.683	
529.900	52.935	
530.000	55.901	
530.100	59.263	
530.200	51.960	
530.300	49.454	
530.400	57.017	
530.500	64.273	
530.600	61.726	
530.700	41.678	
530.800	60.182	
530.900	60.014	
531.000	56.442	
531.100	52.582	
531.200	56.535	
531.300	55.923	
531.400	58.853	
531.500	45.655	
531.600	57.266	
531.700	53.239	
531.800	47.285	
531.900	64.680	
532.000	48.846	
532.100	49.211	
532.200	60.292	
532.300	54.127	
532.400	61.663	
532.500	54.164	
532.600	62.042	
532.700	49.077	
532.800	49.612	
532.900	55.149	
533.000	52.310	
533.100	52.126	
533.200	54.596	
533.300	47.834	
533.400	48.502	
533.500	49.348	
533.600	54.243	
533.700	51.274	
533.800	59.856	
533.900	51.267	
534.000	63.673	
534.100	49.460	
534.200	51.551	
534.300	53.361	
534.400	45.995	
534.500	43.674	
534.600	51.935	
534.700	59.178	
534.800	57.757	
534.900	55.627	
535.000	55.225	
535.100	45.971	
535.200	66.412	
535.300	50.741	
535.400	54.259	
535.500	51.156	
535.600	49.152	
535.700	57.843	
535.800	50.677	
535.900	66.264	
536.000	28.630	
536.100	53.530	
536.200	51.943	
536.300	58.540	
536.400	59.838	
536.500	58.549	
536.600	58.210	
536.700	60.333	
536.800	46.708	
536.900	64.809	
537.000	46.620	
537.100	56.984	
537.200	64.707	
537.300	70.341	
537.400	48.326	
537.500	50.140	
537.600	57.558	
537.700	58.131	
537.800	56.467	
537.900	54.394	
538.000	47.637	
538.100	49.986	
538.200	43.712	
538.300	36.144	
538.400	58.266	
538.500	47.475	
538.600	60.346	
538.700	59.617	
538.800	47.600	
538.900	38.930	
539.000	56.150	
539.100	52.609	
539.200	45.022	
539.300	54.825	
539.400	63.548	
539.500	53.721	
539.600	38.896	
539.700	46.810	
539.800	63.830	
539.900	53.500	
540.000	41.791	
540.100	50.565	
540.200	45.532	
540.300	52.541	
540.400	53.721	
540.500	53.971	
540.600	52.179	
540.700	35.579	
540.800	35.362	
540.900	35.893	
541.000	32.524	
541.100	9.338	
541.200	16.861	
541.300	14.255	
541.400	18.666	
541.500	0.891	
541.600	-7.182	
541.700	-6.953	
541.800	-12.696	
541.900	-12.443	
542.000	-17.810	
542.100	-25.431	
542.200	-23.864	
542.300	-28.229	
542.400	-39.028	
542.500	-35.992	
542.600	-44.888	
542.700	-34.944	
542.800	-51.449	
542.900	-51.073	
543.000	-50.688	
543.100	-46.330	
543.200	-44.527	
543.300	-54.663	
543.400	-46.563	
543.500	-55.254	
543.600	-59.059	
543.700	-51.091	
543.800	-47.442	
543.900	-60.533	
544.000	-55.985	
544.100	-53.538	
544.200	-56.637	
544.300	-58.244	
544.400	-62.222	
544.500	-32.687	
544.600	-62.243	
544.700	-50.335	
544.800	-57.925	
544.900	-39.900	
545.000	-47.284	
545.100	-64.213	
545.200	-54.798	
545.300	-50.076	
545.400	-48.653	
545.500	-62.761	
545.600	-46.616	
545.700	-48.338	
545.800	-59.217	
545.900	-55.113	
546.000	-51.200	
546.100	-50.045	
546.200	-54.535	
546.300	-47.891	
546.400	-50.503	
546.500	-56.170	
546.600	-62.837	
546.700	-34.676	
546.800	-43.378	
546.900	-51.069	
547.000	-53.075	
547.100	-30.828	
547.200	-46.688	
547.300	-67.438	
547.400	-38.989	
547.500	-40.494	
547.600	-34.996	
547.700	-51.967	
547.800	-43.294	
547.900	-51.340	
548.000	-52.256	
548.100	-56.782	
548.200	-54.366	
548.300	-42.415	
548.400	-36.967	
548.500	-52.034	
548.600	-49.092	
548.700	-40.348	
548.800	-44.358	
548.900	-48.589	
549.000	-38.386	
549.100	-45.368	
549.200	-31.714	
549.300	-44.139	
549.400	-34.411	
549.500	-45.672	
549.600	-48.330	
549.700	-44.866	
549.800	-40.488	
549.900	-69.643	
550.000	-22.467	
550.100	-40.287	
550.200	-42.303	
550.300	-43.935	
550.400	-43.472	
550.500	-35.735	
550.600	-46.813	
550.700	-47.630	
550.800	-49.841	
550.900	-44.333	
551.000	-37.166	
551.100	-50.142	
551.200	-32.868	
551.300	-45.975	
551.400	-46.424	
551.500	-48.135	
551.600	-43.207	
551.700	-50.953	
551.800	-27.175	
551.900	-41.472	
552.000	-38.060	
552.100	-46.883	
552.200	-47.067	
552.300	-41.201	
552.400	-66.657	
552.500	-32.955	
552.600	-46.145	
552.700	-26.323	
552.800	-49.758	
552.900	-42.334	
553.000	-44.526	
553.100	-43.269	
553.200	-36.822	
553.300	-39.070	
553.400	-44.057	
553.500	-54.785	
553.600	-39.099	
553.700	-50.877	
553.800	-30.659	
553.900	-54.972	
554.000	-47.998	
554.100	-39.689	
554.200	-43.688	
554.300	-43.174	
554.400	-33.681	
554.500	-48.608	
554.600	-34.529	
554.700	-40.503	
554.800	-49.268	
554.900	-42.044	
555.000	-42.351	
555.100	-39.351	
555.200	-46.235	
555.300	-37.657	
555.400	-61.160	
555.500	-29.789	
555.600	-25.288	
555.700	-45.640	
555.800	-40.872	
555.900	-33.981	
556.000	-46.108	
556.100	-36.347	
556.200	-48.870	
556.300	-39.193	
556.400	-37.101	
556.500	-53.805	
556.600	-31.834	
556.700	-47.018	
556.800	-34.224	
556.900	-43.109	
557.000	-33.790	
557.100	-37.203	
557.200	-46.867	
557.300	-29.274	
557.400	-26.029	
557.500	-44.577	
557.600	-40.677	
557.700	-51.698	
557.800	-30.620	
557.900	-39.343	
558.000	-31.263	
558.100	-36.171	
558.200	-32.201	
558.300	-54.359	
558.400	-29.077	
558.500	-38.727	
558.600	-39.291	
558.700	-29.895	
558.800	-42.546	
558.900	-44.784	
559.000	-35.900	
559.100	-42.937	
559.200	-37.834	
559.300	-44.812	
559.400	-27.713	
559.500	-25.395	
559.600	-44.988	
559.700	-34.887	
559.800	-31.315	
559.900	-32.351	
560.000	-37.042	
560.100	-54.362	
560.200	-31.966	
560.300	-38.888	
560.400	-35.262	
560.500	-33.307	
560.600	-38.467	
560.700	-28.523	
560.800	-27.904	
560.900	-51.029	
561.000	-38.226	
561.100	-32.146	
561.200	-44.360	
561.300	-30.811	
561.400	-32.631	
561.500	-50.969	
561.600	-27.520	
561.700	-29.709	
561.800	-29.572	
561.900	-35.216	
562.000	-18.719	
562.100	-26.300	
562.200	-45.071	
562.300	-40.133	
562.400	-25.495	
562.500	-19.600	
562.600	-50.348	
562.700	-40.542	
562.800	-26.445	
562.900	-35.538	
563.000	-25.587	
563.100	-29.610	
563.200	-38.647	
563.300	-46.100	
563.400	-29.233	
563.500	-26.143	
563.600	-29.978	
563.700	-31.055	
563.800	-32.985	
563.900	-35.110	
564.000	-32.399	
564.100	-21.873	
564.200	-29.907	
564.300	-26.862	
564.400	-28.657	
564.500	-37.977	
564.600	-33.831	
564.700	-27.996	
564.800	-28.451	
564.900	-19.974	
565.000	-46.456	
565.100	-27.259	
565.200	-31.971	
565.300	-28.917	
565.400	-28.154	
565.500	-45.507	
565.600	-32.243	
565.700	-27.241	
565.800	-27.821	
565.900	-30.913	
566.000	-31.595	
566.100	-31.739	
566.200	-39.138	
566.300	-28.110	
566.400	-38.626	
566.500	-14.391	
566.600	-31.847	
566.700	-32.972	
566.800	-35.899	
566.900	-25.303	
567.000	-30.954	
567.100	-15.589	
567.200	-47.782	
567.300	-37.310	
567.400	-33.231	
567.500	-30.547	
567.600	-37.476	
567.700	-18.678	
567.800	-41.082	
567.900	-33.061	
568.000	-18.306	
568.100	-24.502	
568.200	-28.594	
568.300	-36.831	
568.400	-29.676	
568.500	-29.432	
568.600	-25.878	
568.700	-31.395	
568.800	-20.394	
568.900	-30.296	
569.000	-24.687	
569.100	-24.522	
569.200	-27.666	
569.300	-31.107	
569.400	-42.158	
569.500	-41.968	
569.600	-8.870	
569.700	-22.820	
569.800	-31.268	
569.900	-39.145	
570.000	-25.644	
570.100	-38.131	
570.200	-12.684	
570.300	-22.663	
570.400	-39.015	
570.500	-21.564	
570.600	-30.363	
570.700	-38.801	
570.800	-25.950	
570.900	-23.530	
571.000	-19.836	
571.100	-20.118	
571.200	-29.904	
571.300	-26.809	
571.400	-19.027	
571.500	-23.079	
571.600	-30.073	
571.700	-20.527	
571.800	-31.029	
571.900	-25.892	
572.000	-22.489	
572.100	-34.706	
572.200	-14.197	
572.300	-18.845	
572.400	-23.947	
572.500	-24.946	
572.600	-23.192	
572.700	-17.991	
572.800	-29.440	
572.900	-24.651	
573.000	-22.045	
573.100	-24.199	
573.200	-26.140	
573.300	-27.938	
573.400	-18.725	
573.500	-23.907	
573.600	-20.189	
573.700	-31.528	
573.800	-21.555	
573.900	-29.106	
574.000	-29.472	
574.100	-8.255	
574.200	-22.435	
574.300	-26.737	
574.400	-35.789	
574.500	-19.024	
574.600	-22.384	
574.700	-36.162	
574.800	-25.679	
574.900	-20.125	
575.000	-23.894	
575.100	-35.858	
575.200	-24.808	
575.300	-29.797	
575.400	-19.802	
575.500	-35.040	
575.600	-27.873	
575.700	-11.443	
575.800	-23.575	
575.900	-23.028	
576.000	-25.184	
576.100	-22.521	
576.200	-40.542	
576.300	-19.496	
576.400	-24.362	
576.500	-28.472	
576.600	-29.561	
576.700	-16.319	
576.800	-21.130	
576.900	-25.900	
577.000	-20.643	
577.100	-22.033	
577.200	-13.279	
577.300	-25.468	
577.400	-30.205	
577.500	-21.819	
577.600	-24.467	
577.700	-24.822	
577.800	-17.336	
577.900	-27.522	
578.000	-18.020	
578.100	-33.786	
578.200	-29.511	
578.300	-16.997	
578.400	-28.946	
578.500	-13.913	
578.600	-13.751	
578.700	-23.517	
578.800	-27.301	
578.900	-27.433	
579.000	-18.825	
579.100	-31.886	
579.200	-24.665	
579.300	-18.752	
579.400	-25.003	
579.500	-21.984	
579.600	-28.070	
579.700	-29.520	
579.800	-16.040	
579.900	-19.588	
580.000	-22.932	
580.100	-14.393	
580.200	-31.502	
580.300	-26.802	
580.400	-23.927	
580.500	-15.294	
580.600	-21.259	
580.700	-38.192	
580.800	-14.352	
580.900	-23.985	
581.000	-7.254	
581.100	-21.671	
581.200	-26.823	
581.300	-28.065	
581.400	-9.844	
581.500	-38.881	
581.600	-8.550	
581.700	-16.623	
581.800	-22.840	
581.900	-37.751	
582.000	-24.269	
582.100	-27.024	
582.200	-17.817	
582.300	-20.864	
582.400	-15.511	
582.500	-15.687	
582.600	-24.186	
582.700	-15.167	
582.800	-29.134	
582.900	-12.342	
583.000	-22.237	
583.100	-21.113	
583.200	-19.868	
583.300	-24.860	
583.400	-28.444	
583.500	-21.606	
583.600	-22.542	
583.700	-11.896	
583.800	-12.560	
583.900	-29.100	
584.000	-28.618	
584.100	-17.514	
584.200	-7.024	
584.300	-12.106	
584.400	-18.158	
584.500	-32.007	
584.600	-29.303	
584.700	-18.237	
584.800	-21.579	
584.900	-12.410	
585.000	-35.219	
585.100	-17.613	
585.200	-25.821	
585.300	-20.674	
585.400	-30.078	
585.500	-21.119	
585.600	-26.258	
585.700	-15.153	
585.800	-20.734	
585.900	-15.155	
586.000	-26.395	
586.100	-8.729	
586.200	-13.567	
586.300	-27.486	
586.400	-27.565	
586.500	-31.600	
586.600	-14.320	
586.700	-39.601	
586.800	5.129	
586.900	-24.953	
587.000	-13.162	
587.100	-7.308	
587.200	-32.597	
587.300	-20.165	
587.400	-19.185	
587.500	-16.644	
587.600	-2.210	
587.700	-13.020	
587.800	-22.828	
587.900	-11.483	
588.000	-13.749	
588.100	-22.223	
588.200	-6.182	
588.300	-22.780	
588.400	-32.288	
588.500	-15.130	
588.600	-15.997	
588.700	-25.976	
588.800	-20.039	
588.900	-23.467	
589.000	-24.463	
589.100	-7.265	
589.200	-23.511	
589.300	-32.735	
589.400	-26.979	
589.500	-2.647	
589.600	-19.446	
589.700	-4.023	
589.800	-24.321	
589.900	-23.274	
590.000	-3.981	
590.100	-24.190	
590.200	-15.920	
590.300	-21.166	
590.400	-24.704	
590.500	-28.644	
590.600	-8.509	
590.700	-12.482	
590.800	-20.884	
590.900	-14.256	
591.000	-34.532	
591.100	-22.272	
591.200	-6.841	
591.300	-20.657	
591.400	-20.316	
591.500	-17.001	
591.600	-6.079	
591.700	-32.542	
591.800	-12.287	
591.900	-28.050	
592.000	-23.077	
592.100	-17.129	
592.200	-23.157	
592.300	-10.471	
592.400	-13.212	
592.500	-21.219	
592.600	-14.869	
592.700	-14.362	
592.800	-14.813	
592.900	-34.182	
593.000	-8.460	
593.100	-29.172	
593.200	-32.783	
593.300	-3.006	
593.400	-21.443	
593.500	-12.256	
593.600	-25.383	
593.700	-29.205	
593.800	-2.820	
593.900	-24.598	
594.000	-7.408	
594.100	-18.710	
594.200	-18.705	
594.300	-21.175	
594.400	-24.198	
594.500	-19.169	
594.600	-16.838	
594.700	-6.419	
594.800	-16.076	
594.900	-12.967	
595.000	-24.428	
595.100	-30.420	
595.200	-8.389	
595.300	-28.023	
595.400	-18.739	
595.500	-16.094	
595.600	-20.801	
595.700	-21.964	
595.800	-19.228	
595.900	-12.516	
596.000	-19.157	
596.100	-9.273	
596.200	-9.387	
596.300	-19.664	
596.400	-11.256	
596.500	-25.806	
596.600	-4.632	
596.700	-29.695	
596.800	-14.725	
596.900	-22.414	
597.000	-16.355	
597.100	-12.076	
597.200	-22.715	
597.300	-17.475	
597.400	-17.532	
597.500	-13.603	
597.600	-16.917	
597.700	-4.055	
597.800	-24.103	
597.900	-24.052	
598.000	-3.734	
598.100	-10.855	
598.200	-27.649	
598.300	-18.586	
598.400	-3.381	
598.500	-13.352	
598.600	-18.649	
598.700	-5.607	
598.800	-21.625	
598.900	-23.969	
599.000	-18.087	
599.100	-20.969	
599.200	-24.270	
599.300	-8.753	
599.400	-18.654	
599.500	-13.381	
599.600	-21.687	
599.700	-11.684	
599.800	-16.284	
599.900	-23.722	
600.000	-16.181	
600.100	1.516	
600.200	-24.352	
600.300	-9.655	
600.400	-15.287	
600.500	-26.341	
600.600	-9.344	
600.700	-8.733	
600.800	-11.584	
600.900	-10.758	
601.000	-20.666	
601.100	-27.571	
601.200	-16.381	
601.300	-18.507	
601.400	-7.673	
601.500	-15.394	
601.600	-21.861	
601.700	-10.268	
601.800	-16.700	
601.900	-11.768	
602.000	-19.808	
602.100	-22.173	
602.200	-16.674	
602.300	-7.930	
602.400	-4.830	
602.500	-21.227	
602.600	-13.072	
602.700	-8.456	
602.800	-9.282	
602.900	-7.636	
603.000	-7.370	
603.100	-17.951	
603.200	-17.918	
603.300	-18.328	
603.400	-24.599	
603.500	-4.052	
603.600	-8.623	
603.700	-34.835	
603.800	-27.477	
603.900	-8.267	
604.000	-11.532	
604.100	-15.238	
604.200	-4.620	
604.300	-18.817	
604.400	-17.009	
604.500	-5.573	
604.600	-16.936	
604.700	-12.142	
604.800	-25.285	
604.900	-13.924	
605.000	-13.581	
605.100	-26.937	
605.200	-21.210	
605.300	-5.363	
605.400	-16.435	
605.500	-11.453	
605.600	-23.106	
605.700	-23.046	
605.800	-6.841	
605.900	-7.989	
606.000	-6.462	
606.100	-31.189	
606.200	-11.497	
606.300	-8.214	
606.400	-32.843	
606.500	-5.686	
606.600	-11.379	
606.700	-4.416	
606.800	-31.949	
606.900	-8.850	
607.000	-11.784	
607.100	-24.026	
607.200	-7.771	
607.300	-14.876	
607.400	-16.336	
607.500	-8.867	
607.600	-12.986	
607.700	-13.557	
607.800	-13.433	
607.900	-15.095	
608.000	-32.476	
608.100	-17.320	
608.200	-24.846	
608.300	-3.223	
608.400	-10.364	
608.500	-19.429	
608.600	-27.475	
608.700	-11.042	
608.800	-8.881	
608.900	-27.565	
609.000	2.113	
609.100	-8.611	
609.200	-11.019	
609.300	-6.284	
609.400	-19.200	
609.500	-19.878	
609.600	-21.550	
609.700	-22.073	
609.800	-16.657	
609.900	-8.960	
610.000	-23.322	
610.100	-2.400	
610.200	-26.382	
610.300	-22.741	
610.400	-9.760	
610.500	-16.588	
610.600	-26.254	
610.700	-23.359	
610.800	-17.629	
610.900	-25.626	
611.000	-1.600	
611.100	-10.768	
611.200	-20.269	
611.300	-27.385	
611.400	-12.497	
611.500	-12.327	
611.600	-1.509	
611.700	-29.046	
611.800	-19.905	
611.900	-7.543	
612.000	-20.029	
612.100	-15.570	
612.200	-11.963	
612.300	-17.914	
612.400	-12.554	
612.500	-23.181	
612.600	-7.744	
612.700	-13.743	
612.800	-8.480	
612.900	-28.374	
613.000	-9.258	
613.100	-19.408	
613.200	-10.743	
613.300	-9.112	
613.400	-6.935	
613.500	-16.669	
613.600	-13.122	
613.700	-2.320	
613.800	-19.447	
613.900	-18.394	
614.000	-12.437	
614.100	-16.970	
614.200	-16.141	
614.300	-9.429	
614.400	-12.005	
614.500	-14.184	
614.600	-18.576	
614.700	-1.252	
614.800	-2.715	
614.900	-9.042	
615.000	-15.282	
615.100	-16.748	
615.200	-11.855	
615.300	-18.290	
615.400	-6.822	
615.500	-21.056	
615.600	-5.802	
615.700	-23.346	
615.800	-15.520	
615.900	-23.838	
616.000	-5.481	
616.100	-9.985	
616.200	-19.745	
616.300	-23.957	
616.400	7.190	
616.500	-21.151	
616.600	-15.042	
616.700	-7.360	
616.800	-6.627	
616.900	-23.127	
617.000	-16.145	
617.100	-19.604	
617.200	-13.305	
617.300	-16.621	
617.400	-18.820	
617.500	-10.549	
617.600	-16.419	
617.700	-8.905	
617.800	-2.819	
617.900	-17.656	
618.000	-4.646	
618.100	-27.132	
618.200	-11.043	
618.300	-17.097	
618.400	-9.504	
618.500	-20.058	
618.600	-10.116	
618.700	-3.028	
618.800	-14.760	
618.900	-16.441	
619.000	-23.104	
619.100	4.418	
619.200	-9.018	
619.300	-9.278	
619.400	-10.827	
619.500	-28.672	
619.600	-21.224	
619.700	-7.960	
619.800	-15.578	
619.900	-10.215	
620.000	-24.776	
620.100	-24.950	
620.200	-1.916	
620.300	-11.895	
620.400	-18.951	
620.500	-15.281	
620.600	-7.469	
620.700	-19.792	
620.800	-15.163	
620.900	-21.123	
621.000	-13.169	
621.100	-28.024	
621.200	-14.566	
621.300	-1.278	
621.400	-8.949	
621.500	-19.823	
621.600	-12.457	
621.700	-0.287	
621.800	-18.219	
621.900	-8.427	
622.000	-14.033	
622.100	-13.684	
622.200	-18.206	
622.300	-11.081	
622.400	-15.750	
622.500	-19.894	
622.600	-11.424	
622.700	-10.625	
622.800	-7.964	
622.900	-13.108	
623.000	-6.634	
623.100	-21.181	
623.200	-10.696	
623.300	-16.336	
623.400	-11.558	
623.500	-11.007	
623.600	-15.215	
623.700	-7.006	
623.800	-15.795	
623.900	-12.440	
624.000	-23.818	
624.100	-13.232	
624.200	-13.665	
624.300	-15.815	
624.400	-2.952	
624.500	-13.677	
624.600	-16.299	
624.700	-11.024	
624.800	-2.860	
624.900	-22.839	
625.000	-18.599	
625.100	11.284	
625.200	-32.473	
625.300	-20.670	
625.400	-12.495	
625.500	-17.753	
625.600	-18.333	
625.700	-7.446	
625.800	-7.834	
625.900	-11.210	
626.000	-6.233	
626.100	-17.110	
626.200	-24.481	
626.300	-21.940	
626.400	-16.713	
626.500	5.898	
626.600	0.792	
626.700	-13.879	
626.800	-27.915	
626.900	-14.533	
627.000	-11.374	
627.100	-20.352	
627.200	4.098	
627.300	-0.772	
627.400	-9.936	
627.500	-1.286	
627.600	-13.877	
627.700	-15.882	
627.800	-15.590	
627.900	-4.498	
628.000	-21.963	
628.100	-13.984	
628.200	-20.269	
628.300	-21.083	
628.400	-4.157	
628.500	-8.259	
628.600	-7.611	
628.700	-12.486	
628.800	-7.330	
628.900	-12.173	
629.000	-23.812	
629.100	-16.951	
629.200	-19.924	
629.300	-11.817	
629.400	-17.594	
629.500	-16.987	
629.600	-8.642	
629.700	-6.055	
629.800	-9.839	
629.900	2.829	
630.000	-16.340	
630.100	-15.597	
630.200	-16.107	
630.300	-3.238	
630.400	-8.060	
630.500	-11.761	
630.600	2.960	
630.700	1.243	
630.800	-4.170	
630.900	24.484	
631.000	17.778	
631.100	20.349	
631.200	43.284	
631.300	34.618	
631.400	29.782	
631.500	27.310	
631.600	38.212	
631.700	36.962	
631.800	40.989	
631.900	33.634	
632.000	38.437	
632.100	27.879	
632.200	43.296	
632.300	35.751	
632.400	38.490	
632.500	49.633	
632.600	27.131	
632.700	46.815	
632.800	41.645	
632.900	43.119	
633.000	31.840	
633.100	41.925	
633.200	31.481	
633.300	46.568	
633.400	24.699	
633.500	31.352	
633.600	36.934	
633.700	30.314	
633.800	25.622	
633.900	28.654	
634.000	15.604	
634.100	24.388	
634.200	32.860	
634.300	32.306	
634.400	14.058	
634.500	13.619	
634.600	42.757	
634.700	18.453	
634.800	30.285	
634.900	12.347	
635.000	39.526	
635.100	29.334	
635.200	27.291	
635.300	26.370	
635.400	32.965	
635.500	25.292	
635.600	24.292	
635.700	40.039	
635.800	25.006	
635.900	25.023	
636.000	25.855	
636.100	45.645	
636.200	34.508	
636.300	28.835	
636.400	46.847	
636.500	31.737	
636.600	17.818	
636.700	31.313	
636.800	35.954	
636.900	40.950	
637.000	34.089	
637.100	37.695	
637.200	44.071	
637.300	29.393	
637.400	33.690	
637.500	49.486	
637.600	35.973	
637.700	42.068	
637.800	42.273	
637.900	35.068	
638.000	43.949	
638.100	31.248	
638.200	42.040	
638.300	40.598	
638.400	46.404	
638.500	58.884	
638.600	40.908	
638.700	41.124	
638.800	40.785	
638.900	42.095	
639.000	47.121	
639.100	42.980	
639.200	46.147	
639.300	40.081	
639.400	47.577	
639.500	29.807	
639.600	38.348	
639.700	44.316	
639.800	58.808	
639.900	37.423	
640.000	56.099	
640.100	46.569	
640.200	48.704	
640.300	50.385	
640.400	34.306	
640.500	51.988	
640.600	39.975	
640.700	38.800	
640.800	52.115	
640.900	50.610	
641.000	41.925	
641.100	52.497	
641.200	44.887	
641.300	47.777	
641.400	46.825	
641.500	51.836	
641.600	49.285	
641.700	45.590	
641.800	49.398	
641.900	50.380	
642.000	63.808	
642.100	51.854	
642.200	54.758	
642.300	65.961	
642.400	42.602	
642.500	54.318	
642.600	44.349	
642.700	57.823	
642.800	54.085	
642.900	45.030	
643.000	52.342	
643.100	55.585	
643.200	41.151	
643.300	62.616	
643.400	53.275	
643.500	44.480	
643.600	50.586	
643.700	48.216	
643.800	63.532	
643.900	58.651	
644.000	52.582	
644.100	61.454	
644.200	51.888	
644.300	46.928	
644.400	46.904	
644.500	50.176	
644.600	47.758	
644.700	64.497	
644.800	54.576	
644.900	50.351	
645.000	51.657	
645.100	51.909	
645.200	58.768	
645.300	58.601	
645.400	51.320	
645.500	60.011	
645.600	49.265	
645.700	43.305	
645.800	61.045	
645.900	51.137	
646.000	65.128	
646.100	48.550	
646.200	53.066	
646.300	47.244	
646.400	57.902	
646.500	62.510	
646.600	47.745	
646.700	53.585	
646.800	49.969	
646.900	54.602	
647.000	61.691	
647.100	44.914	
647.200	67.233	
647.300	62.300	
647.400	60.707	
647.500	45.873	
647.600	65.000	
647.700	52.792	
647.800	49.891	
647.900	58.129	
648.000	46.236	
648.100	62.401	
648.200	69.550	
648.300	45.726	
648.400	51.018	
648.500	65.340	
648.600	41.026	
648.700	53.180	
648.800	47.789	
648.900	59.076	
649.000	53.143	
649.100	52.155	
649.200	61.374	
649.300	55.949	
649.400	52.878	
649.500	56.180	
649.600	54.749	
649.700	55.977	
649.800	51.332	
649.900	37.629	
650.000	51.261	
650.100	49.877	
650.200	50.262	
650.300	40.634	
650.400	66.204	
650.500	51.357	
650.600	56.752	
650.700	53.073	
650.800	53.137	
650.900	47.215	
651.000	59.235	
651.100	50.803	
651.200	58.236	
651.300	58.692	
651.400	60.227	
651.500	36.934	
651.600	50.233	
651.700	58.993	
651.800	63.563	
651.900	43.356	
652.000	63.264	
652.100	58.423	
652.200	41.782	
652.300	59.064	
652.400	53.907	
652.500	52.990	
652.600	55.940	
652.700	56.257	
652.800	51.876	
652.900	67.801	
653.000	48.117	
653.100	49.744	
653.200	61.536	
653.300	50.700	
653.400	52.661	
653.500	56.571	
653.600	53.460	
653.700	52.955	
653.800	53.735	
653.900	64.611	
654.000	51.831	
654.100	62.365	
654.200	54.443	
654.300	40.446	
654.400	50.699	
654.500	40.231	
654.600	54.164	
654.700	70.219	
654.800	52.333	
654.900	57.016	
655.000	59.398	
655.100	44.039	
655.200	46.609	
655.300	44.596	
655.400	57.306	
655.500	53.568	
655.600	55.934	
655.700	53.340	
655.800	57.758	
655.900	43.219	
656.000	67.506	
656.100	54.846	
656.200	59.902	
656.300	52.520	
656.400	43.772	
656.500	62.986	
656.600	59.407	
656.700	65.038	
656.800	37.122	
656.900	61.584	
657.000	63.967	
657.100	51.597	
657.200	47.113	
657.300	59.599	
657.400	59.940	
657.500	38.119	
657.600	58.983	
657.700	57.798	
657.800	48.150	
657.900	42.441	
658.000	55.379	
658.100	45.664	
658.200	62.932	
658.300	56.039	
658.400	42.201	
658.500	59.473	
658.600	48.191	
658.700	59.547	
658.800	49.370	
658.900	53.794	
659.000	48.517	
659.100	49.641	
659.200	45.401	
659.300	65.495	
659.400	57.367	
659.500	56.963	
659.600	52.132	
659.700	57.499	
659.800	63.058	
659.900	64.272	
660.000	47.730	
660.100	51.090	
660.200	49.392	
660.300	52.585	
660.400	47.983	
660.500	50.815	
660.600	62.026	
660.700	57.574	
660.800	44.240	
660.900	64.045	
661.000	53.060	
661.100	58.875	
661.200	58.906	
661.300	50.774	
661.400	56.148	
661.500	59.217	
661.600	51.114	
661.700	42.838	
661.800	50.770	
661.900	65.078	
662.000	52.363	
662.100	54.642	
662.200	61.984	
662.300	43.699	
662.400	51.511	
662.500	57.541	
662.600	43.321	
662.700	58.266	
662.800	62.055	
662.900	52.626	
663.000	52.960	
663.100	47.898	
663.200	51.242	
663.300	42.503	
663.400	57.139	
663.500	49.148	
663.600	53.480	
663.700	42.660	
663.800	58.427	
663.900	58.029	
664.000	60.034	
664.100	59.818	
664.200	58.638	
664.300	43.033	
664.400	56.891	
664.500	60.821	
664.600	40.281	
664.700	56.452	
664.800	58.551	
664.900	48.961	
665.000	60.097	
665.100	66.726	
665.200	59.719	
665.300	55.280	
665.400	50.812	
665.500	49.434	
665.600	67.183	
665.700	65.605	
665.800	52.247	
665.900	59.830	
666.000	50.270	
666.100	53.968	
666.200	54.936	
666.300	58.600	
666.400	63.991	
666.500	58.886	
666.600	47.901	
666.700	56.008	
666.800	59.236	
666.900	54.369	
667.000	43.080	
667.100	50.302	
667.200	42.784	
667.300	61.893	
667.400	50.452	
667.500	44.880	
667.600	54.262	
667.700	53.468	
667.800	61.712	
667.900	68.529	
668.000	55.834	
668.100	52.937	
668.200	56.276	
668.300	59.591	
668.400	51.764	
668.500	40.334	
668.600	67.367	
668.700	73.284	
668.800	48.004	
668.900	55.304	
669.000	53.429	
669.100	54.440	
669.200	55.140	
669.300	61.021	
669.400	62.339	
669.500	37.210	
669.600	59.855	
669.700	60.539	
669.800	59.445	
669.900	64.038	
670.000	49.984	
670.100	56.137	
670.200	53.298	
670.300	52.546	
670.400	50.101	
670.500	60.101	
670.600	45.058	
670.700	72.902	
670.800	53.354	
670.900	50.775	
671.000	61.701	
671.100	61.725	
671.200	57.088	
671.300	55.156	
671.400	64.877	
671.500	37.456	
671.600	68.188	
671.700	51.349	
671.800	42.069	
671.900	60.744	
672.000	49.919	
672.100	67.848	
672.200	69.234	
672.300	50.747	
672.400	48.333	
672.500	54.273	
672.600	59.330	
672.700	55.512	
672.800	56.071	
672.900	63.254	
673.000	51.946	
673.100	47.957	
673.200	55.784	
673.300	53.923	
673.400	67.610	
673.500	57.979	
673.600	58.097	
673.700	58.312	
673.800	59.405	
673.900	50.454	
674.000	56.867	
674.100	60.382	
674.200	42.390	
674.300	66.520	
674.400	63.357	
674.500	61.716	
674.600	55.510	
674.700	55.873	
674.800	53.172	
674.900	44.702	
675.000	60.854	
675.100	57.065	
675.200	57.402	
675.300	57.400	
675.400	47.455	
675.500	51.493	
675.600	58.388	
675.700	60.742	
675.800	49.863	
675.900	52.494	
676.000	47.760	
676.100	67.793	
676.200	62.444	
676.300	53.506	
676.400	51.463	
676.500	69.934	
676.600	53.869	
676.700	56.228	
676.800	60.952	
676.900	50.171	
677.000	55.826	
677.100	39.840	
677.200	62.151	
677.300	50.985	
677.400	53.229	
677.500	55.565	
677.600	52.216	
677.700	48.332	
677.800	69.903	
677.900	60.950	
678.000	54.455	
678.100	39.794	
678.200	65.247	
678.300	42.175	
678.400	51.739	
678.500	63.374	
678.600	65.420	
678.700	63.512	
678.800	54.602	
678.900	50.701	
679.000	57.071	
679.100	72.311	
679.200	62.759	
679.300	52.316	
679.400	57.886	
679.500	35.326	
679.600	62.014	
679.700	51.667	
679.800	53.072	
679.900	62.723	
680.000	53.067	
680.100	65.757	
680.200	53.865	
680.300	55.964	
680.400	53.258	
680.500	49.855	
680.600	67.963	
680.700	60.722	
680.800	43.507	
680.900	68.055	
681.000	43.938	
681.100	62.201	
681.200	68.830	
681.300	59.306	
681.400	53.220	
681.500	50.680	
681.600	53.411	
681.700	43.210	
681.800	60.092	
681.900	54.395	
682.000	51.695	
682.100	54.957	
682.200	50.407	
682.300	57.393	
682.400	67.061	
682.500	61.163	
682.600	53.030	
682.700	37.629	
682.800	71.227	
682.900	59.121	
683.000	63.245	
683.100	51.828	
683.200	65.258	
683.300	49.463	
683.400	54.546	
683.500	48.421	
683.600	46.550	
683.700	57.728	
683.800	54.693	
683.900	46.454	
684.000	52.692	
684.100	42.752	
684.200	44.340	
684.300	56.304	
684.400	53.811	
684.500	46.775	
684.600	54.419	
684.700	51.491	
684.800	50.269	
684.900	55.474	
685.000	54.849	
685.100	53.985	
685.200	63.007	
685.300	54.906	
685.400	55.830	
685.500	48.039	
685.600	60.261	
685.700	51.949	
685.800	47.604	
685.900	58.764	
686.000	51.153	
686.100	56.110	
686.200	63.296	
686.300	42.617	
686.400	53.509	
686.500	48.836	
686.600	54.773	
686.700	54.648	
686.800	50.054	
686.900	59.927	
687.000	53.356	
687.100	46.692	
687.200	47.675	
687.300	57.479	
687.400	46.628	
687.500	66.563	
687.600	55.625	
687.700	46.830	
687.800	65.404	
687.900	45.240	
688.000	40.847	
688.100	50.400	
688.200	66.568	
688.300	59.278	
688.400	43.256	
688.500	49.252	
688.600	47.273	
688.700	57.810	
688.800	44.563	
688.900	51.782	
689.000	54.245	
689.100	57.047	
689.200	42.743	
689.300	33.745	
689.400	59.127	
689.500	56.652	
689.600	46.704	
689.700	55.199	
689.800	45.287	
689.900	50.241	
690.000	62.923	
690.100	59.897	
690.200	45.080	
690.300	35.686	
690.400	51.463	
690.500	57.040	
690.600	46.436	
690.700	48.009	
690.800	49.071	
690.900	33.697	
691.000	34.058	
691.100	19.510	
691.200	27.462	
691.300	-6.628	
691.400	24.524	
691.500	1.038	
691.600	3.925	
691.700	-17.942	
691.800	-18.825	
691.900	-17.702	
692.000	-17.377	
692.100	-31.684	
692.200	-31.174	
692.300	-34.960	
692.400	-33.096	
692.500	-37.332	
692.600	-57.091	
692.700	-42.648	
692.800	-51.509	
692.900	-47.708	
693.000	-38.824	
693.100	-46.304	
693.200	-44.153	
693.300	-52.532	
693.400	-41.238	
693.500	-45.784	
693.600	-47.903	
693.700	-52.523	
693.800	-55.652	
693.900	-58.947	
694.000	-62.762	
694.100	-61.894	
694.200	-55.465	
694.300	-59.779	
694.400	-55.258	
694.500	-43.362	
694.600	-63.820	
694.700	-57.029	
694.800	-51.406	
694.900	-65.615	
695.000	-60.974	
695.100	-49.940	
695.200	-52.862	
695.300	-64.430	
695.400	-47.018	
695.500	-54.749	
695.600	-57.784	
695.700	-42.374	
695.800	-45.789	
695.900	-52.543	
696.000	-52.716	
696.100	-45.329	
696.200	-49.255	
696.300	-56.096	
696.400	-58.594	
696.500	-45.431	
696.600	-47.810	
696.700	-49.488	
696.800	-55.039	
696.900	-43.774	
697.000	-46.788	
697.100	-45.951	
697.200	-55.762	
697.300	-47.037	
697.400	-64.867	
697.500	-44.176	
697.600	-36.794	
697.700	-41.303	
697.800	-47.367	
697.900	-45.874	
698.000	-41.789	
698.100	-53.004	
698.200	-50.080	
698.300	-41.663	
698.400	-27.554	
698.500	-52.121	
698.600	-46.174	
698.700	-46.656	
698.800	-58.033	
698.900	-59.235	
699.000	-45.728	
699.100	-47.757	
699.200	-42.634	
699.300	-55.906	
699.400	-46.154	
699.500	-50.705	
699.600	-49.404	
699.700	-51.562	
699.800	-51.898	
699.900	-46.021	
700.000	-46.656	
700.100	-49.462	
700.200	-38.747	
700.300	-52.228	
700.400	-46.450	
700.500	-49.114	
700.600	-56.487	
700.700	-34.822	
700.800	-62.861	
700.900	-54.730	
701.000	-38.207	
701.100	-42.442	
701.200	-47.312	
701.300	-38.580	
701.400	-56.839	
701.500	-38.974	
701.600	-45.205	
701.700	-44.022	
701.800	-44.229	
701.900	-40.530	
702.000	-56.071	
702.100	-42.722	
702.200	-37.731	
702.300	-47.427	
702.400	-49.720	
702.500	-35.761	
702.600	-60.213	
702.700	-35.733	
702.800	-38.482	
702.900	-52.692	
703.000	-37.634	
703.100	-40.650	
703.200	-50.337	
703.300	-46.449	
703.400	-41.344	
703.500	-50.367	
703.600	-40.245	
703.700	-38.724	
703.800	-50.285	
703.900	-40.805	
704.000	-27.800	
704.100	-40.245	
704.200	-43.253	
704.300	-48.634	
704.400	-41.522	
704.500	-51.966	
704.600	-50.360	
704.700	-41.709	
704.800	-44.204	
704.900	-44.292	
705.000	-33.877	
705.100	-55.366	
705.200	-41.085	
705.300	-27.621	
705.400	-50.184	
705.500	-41.843	
705.600	-31.700	
705.700	-49.115	
705.800	-31.036	
705.900	-52.970	
706.000	-48.951	
706.100	-46.803	
706.200	-38.789	
706.300	-42.501	
706.400	-34.972	
706.500	-34.065	
706.600	-28.344	
706.700	-44.808	
706.800	-52.842	
706.900	-29.383	
707.000	-45.109	
707.100	-46.092	
707.200	-51.976	
707.300	-30.150	
707.400	-37.103	
707.500	-35.387	
707.600	-48.040	
707.700	-34.248	
707.800	-44.221	
707.900	-43.432	
708.000	-35.313	
708.100	-41.759	
708.200	-33.345	
708.300	-39.816	
708.400	-32.818	
708.500	-49.506	
708.600	-35.080	
708.700	-36.686	
708.800	-31.766	
708.900	-32.722	
709.000	-48.269	
709.100	-32.668	
709.200	-43.561	
709.300	-37.535	
709.400	-36.217	
709.500	-42.787	
709.600	-38.734	
709.700	-34.603	
709.800	-35.983	
709.900	-38.938	
710.000	-43.789	
710.100	-36.437	
710.200	-35.014	
710.300	-34.794	
710.400	-31.395	
710.500	-47.001	
710.600	-36.637	
710.700	-35.048	
710.800	-26.968	
710.900	-29.431	
711.000	-42.974	
711.100	-43.345	
711.200	-28.042	
711.300	-43.528	
711.400	-24.719	
711.500	-37.438	
711.600	-47.977	
711.700	-53.605	
711.800	-30.975	
711.900	-36.329	
712.000	-35.132	
712.100	-25.353	
712.200	-40.349	
712.300	-24.345	
712.400	-42.880	
712.500	-28.820	
712.600	-35.890	
712.700	-36.964	
712.800	-25.028	
712.900	-38.158	
713.000	-30.099	
713.100	-36.658	
713.200	-41.338	
713.300	-30.659	
713.400	-48.505	
713.500	-41.904	
713.600	-23.739	
713.700	-31.696	
713.800	-49.030	
713.900	-35.749	
714.000	-30.185	
714.100	-34.926	
714.200	-37.386	
714.300	-35.478	
714.400	-42.745	
714.500	-6.806	
714.600	-30.302	
714.700	-32.947	
714.800	-43.374	
714.900	-26.452	
715.000	-33.403	
715.100	-20.572	
715.200	-46.255	
715.300	-28.629	
715.400	-41.042	
715.500	-37.145	
715.600	-17.148	
715.700	-33.310	
715.800	-32.349	
715.900	-24.552	
716.000	-28.611	
716.100	-34.376	
716.200	-34.860	
716.300	-34.118	
716.400	-26.099	
716.500	-39.808	
716.600	-17.052	
716.700	-39.625	
716.800	-20.323	
716.900	-36.916	
717.000	-25.531	
717.100	-40.635	
717.200	-30.808	
717.300	-32.460	
717.400	-13.828	
717.500	-24.603	
717.600	-32.320	
717.700	-23.389	
717.800	-26.822	
717.900	-16.244	
718.000	-29.385	
718.100	-27.750	
718.200	-34.088	
718.300	-28.309	
718.400	-27.344	
718.500	-20.889	
718.600	-24.906	
718.700	-34.458	
718.800	-31.300	
718.900	-15.215	
719.000	-9.615	
719.100	-19.752	
719.200	-34.289	
719.300	-26.313	
719.400	-31.718	
719.500	-31.384	
719.600	-24.597	
719.700	-33.855	
719.800	-24.418	
719.900	-22.959	
720.000	-23.184	
720.100	-30.331	
720.200	-22.063	
720.300	-26.476	
720.400	-31.792	
720.500	-35.253	
720.600	-28.757	
720.700	-26.942	
720.800	-30.914	
720.900	-40.577	
721.000	-17.535	
721.100	-24.634	
721.200	-23.512	
721.300	-18.299	
721.400	-24.777	
721.500	-26.982	
721.600	-10.606	
721.700	-24.483	
721.800	-35.952	
721.900	-15.912	
722.000	-23.277	
722.100	-21.736	
722.200	-42.605	
722.300	-19.635	
722.400	-20.729	
722.500	-28.246	
722.600	-19.542	
722.700	-33.202	
722.800	-22.803	
722.900	-31.044	
723.000	-36.535	
723.100	-32.423	
723.200	-23.570	
723.300	-33.950	
723.400	-17.794	
723.500	-34.768	
723.600	-21.884	
723.700	-38.568	
723.800	-6.362	
723.900	-28.463	
724.000	-22.189	
724.100	-19.622	
724.200	-30.517	
724.300	-21.380	
724.400	-32.379	
724.500	-52.566	
724.600	-19.292	
724.700	-17.137	
724.800	-37.235	
724.900	-28.688	
725.000	-21.442	
725.100	-26.169	
725.200	-27.389	
725.300	-9.303	
725.400	-14.821	
725.500	-21.570	
725.600	-25.245	
725.700	-27.611	
725.800	-25.019	
725.900	-22.321	
726.000	-20.104	
726.100	-26.513	
726.200	-23.412	
726.300	-19.585	
726.400	-37.470	
726.500	-13.045	
726.600	-21.628	
726.700	-23.320	
726.800	-21.276	
726.900	-32.185	
727.000	-20.983	
727.100	-36.707	
727.200	-22.717	
727.300	-35.190	
727.400	-27.244	
727.500	-24.627	
727.600	-15.531	
727.700	-21.174	
727.800	-21.915	
727.900	-19.425	
728.000	-30.611	
728.100	-18.290	
728.200	-29.175	
728.300	-17.385	
728.400	-25.930	
728.500	-36.351	
728.600	-26.800	
728.700	-24.224	
728.800	-33.419	
728.900	-12.041	
729.000	-32.783	
729.100	-32.370	
729.200	-30.133	
729.300	-21.456	
729.400	-10.808	
729.500	-25.623	
729.600	-6.029	
729.700	-36.529	
729.800	-22.726	
729.900	-20.763	
730.000	-30.370	
730.100	-17.746	
730.200	-12.488	
730.300	-20.859	
730.400	-44.287	
730.500	-19.829	
730.600	-1.314	
730.700	-13.350	
730.800	-24.573	
730.900	-15.744	
731.000	-22.114	
731.100	-5.687	
731.200	-19.249	
731.300	-18.716	
731.400	-27.223	
731.500	-23.476	
731.600	-20.393	
731.700	-19.666	
731.800	-17.658	
731.900	-26.493	
732.000	-17.879	
732.100	-26.340	
732.200	-18.716	
732.300	-16.306	
732.400	-22.676	
732.500	-26.587	
732.600	-23.030	
732.700	-30.985	
732.800	-24.271	
732.900	-31.226	
733.000	-16.098	
733.100	-30.906	
733.200	-21.750	
733.300	-5.880	
733.400	-7.331	
733.500	-25.954	
733.600	-34.863	
733.700	-26.293	
733.800	-29.139	
733.900	-19.982	
734.000	-55.808	
734.100	-18.225	
734.200	-33.122	
734.300	-11.585	
734.400	-39.302	
734.500	-2.553	
734.600	-16.039	
734.700	-22.117	
734.800	-18.112	
734.900	-30.478	
735.000	-13.183	
735.100	-33.423	
735.200	-17.285	
735.300	-27.615	
735.400	-18.859	
735.500	-25.023	
735.600	-22.349	
735.700	-29.890	
735.800	-21.084	
735.900	-17.091	
736.000	-12.135	
736.100	-26.749	
736.200	-8.639	
736.300	0.482	
736.400	-41.308	
736.500	-18.062	
736.600	-37.934	
736.700	-17.565	
736.800	-24.980	
736.900	-22.835	
737.000	-20.634	
737.100	-7.838	
737.200	-28.509	
737.300	-22.767	
737.400	-17.844	
737.500	-18.634	
737.600	-22.205	
737.700	-31.871	
737.800	-31.121	
737.900	-26.722	
738.000	-23.361	
738.100	-20.373	
738.200	-27.369	
738.300	-25.536	
738.400	-17.863	
738.500	-34.658	
738.600	-13.310	
738.700	-18.689	
738.800	-12.733	
738.900	-34.329	
739.000	-5.675	
739.100	-17.160	
739.200	-32.440	
739.300	-21.422	
739.400	-20.491	
739.500	-21.773	
739.600	-31.940	
739.700	-11.031	
739.800	-13.210	
739.900	-28.356	
740.000	-13.386	
740.100	-9.040	
740.200	-24.492	
740.300	-16.761	
740.400	-19.417	
740.500	-17.703	
740.600	-27.152	
740.700	-34.558	
740.800	3.170	
740.900	-18.755	
741.000	-19.247	
741.100	-24.888	
741.200	-23.007	
741.300	-22.842	
741.400	-18.231	
741.500	-17.931	
741.600	-17.400	
741.700	-13.282	
741.800	-21.000	
741.900	-24.592	
742.000	-14.000	
742.100	-26.067	
742.200	-6.124	
742.300	-28.469	
742.400	-22.117	
742.500	-18.420	
742.600	-18.409	
742.700	-6.425	
742.800	-11.272	
742.900	-17.054	
743.000	-12.681	
743.100	-14.258	
743.200	-25.859	
743.300	-5.189	
743.400	-19.513	
743.500	-19.767	
743.600	-16.320	
743.700	-19.695	
743.800	-26.124	
743.900	-27.176	
744.000	-17.597	
744.100	-17.821	
744.200	-23.645	
744.300	-19.525	
744.400	-5.269	
744.500	-22.582	
744.600	-25.786	
744.700	-35.289	
744.800	-26.578	
744.900	-20.571	
745.000	-22.789	
745.100	-15.654	
745.200	-23.920	
745.300	-22.067	
745.400	-11.624	
745.500	-1.561	
745.600	-15.686	
745.700	-18.217	
745.800	-21.404	
745.900	-14.084	
746.000	-33.852	
746.100	0.035	
746.200	-14.228	
746.300	-19.940	
746.400	-16.333	
746.500	-19.957	
746.600	-22.974	
746.700	-31.665	
746.800	-16.643	
746.900	-21.138	
747.000	-7.651	
747.100	-12.806	
747.200	-9.779	
747.300	-35.408	
747.400	-9.301	
747.500	-21.293	
747.600	-25.786	
747.700	-5.381	
747.800	-32.801	
747.900	-8.555	
748.000	-22.913	
748.100	-9.001	
748.200	-14.725	
748.300	-20.818	
748.400	-25.996	
748.500	-12.788	
748.600	-19.405	
748.700	-17.283	
748.800	-21.676	
748.900	-18.743	
749.000	-7.749	
749.100	-24.895	
749.200	-28.000	
749.300	-1.561	
749.400	-24.300	
749.500	-11.535	
749.600	-7.967	
749.700	-21.921	
749.800	-17.614	
749.900	-36.277	
750.000	-11.954	
750.100	-5.754	
750.200	-25.615	
750.300	-15.709	
750.400	-14.102	
750.500	-29.219	
750.600	-26.640	
750.700	5.589	
750.800	-10.184	
750.900	-10.490	
751.000	-13.760	
751.100	-20.170	
751.200	-12.270	
751.300	-33.184	
751.400	-1.677	
751.500	-14.680	
751.600	-36.654	
751.700	-6.027	
751.800	-8.771	
751.900	-12.450	
752.000	-12.051	
752.100	-16.805	
752.200	-16.837	
752.300	-4.639	
752.400	-35.690	
752.500	-18.401	
752.600	-10.903	
752.700	-20.744	
752.800	-2.950	
752.900	-24.851	
753.000	-17.076	
753.100	-20.951	
753.200	-19.935	
753.300	-21.100	
753.400	-18.411	
753.500	-6.627	
753.600	-21.158	
753.700	-5.692	
753.800	-14.819	
753.900	-28.066	
754.000	-13.368	
754.100	-16.008	
754.200	-24.177	
754.300	-14.183	
754.400	-20.051	
754.500	-11.572	
754.600	-8.983	
754.700	-19.457	
754.800	-12.220	
754.900	-20.456	
755.000	-17.041	
755.100	-15.073	
755.200	-13.559	
755.300	-16.559	
755.400	-20.643	
755.500	-18.222	
755.600	-11.501	
755.700	-10.852	
755.800	-22.527	
755.900	-28.616	
756.000	-14.566	
756.100	-19.762	
756.200	-12.408	
756.300	-14.231	
756.400	-14.606	
756.500	-4.700	
756.600	-4.359	
756.700	-13.509	
756.800	-11.867	
756.900	-16.287	
757.000	-18.643	
757.100	-29.316	
757.200	0.693	
757.300	-20.239	
757.400	-14.113	
757.500	-9.366	
757.600	-14.502	
757.700	-17.898	
757.800	-12.482	
757.900	-20.250	
758.000	-8.578	
758.100	-10.950	
758.200	-32.481	
758.300	-13.137	
758.400	-18.777	
758.500	-21.009	
758.600	-33.585	
758.700	12.468	
758.800	-17.482	
758.900	-12.323	
759.000	-14.278	
759.100	-19.030	
759.200	-15.129	
759.300	3.327	
759.400	-18.132	
759.500	-12.036	
759.600	-9.694	
759.700	-16.407	
759.800	-9.827	
759.900	-13.433	
760.000	-15.366	
760.100	-23.033	
760.200	-1.852	
760.300	-20.542	
760.400	-15.754	
760.500	-22.116	
760.600	-23.277	
760.700	-3.944	
760.800	-15.432	
760.900	-11.486	
761.000	-9.697	
761.100	-14.212	
761.200	-14.691	
761.300	-34.538	
761.400	-20.826	
761.500	-11.263	
761.600	-20.377	
761.700	-13.162	
761.800	-6.855	
761.900	-29.099	
762.000	-14.118	
762.100	-14.720	
762.200	-0.053	
762.300	-8.824	
762.400	-25.257	
762.500	-15.671	
762.600	-15.757	
762.700	-6.242	
762.800	-10.923	
762.900	-11.990	
763.000	-15.513	
763.100	-14.750	
763.200	-10.677	
763.300	-17.212	
763.400	-17.841	
763.500	-13.776	
763.600	-6.348	
763.700	-1.548	
763.800	-7.504	
763.900	-20.183	
764.000	-32.443	
764.100	-23.480	
764.200	-17.027	
764.300	-7.963	
764.400	-13.540	
764.500	-24.673	
764.600	-0.608	
764.700	-17.654	
764.800	-11.569	
764.900	-18.013	
765.000	-10.309	
765.100	-16.434	
765.200	-10.821	
765.300	-12.384	
765.400	-19.170	
765.500	-19.236	
765.600	0.238	
765.700	-19.327	
765.800	-11.700	
765.900	-33.177	
766.000	-0.153	
766.100	-27.541	
766.200	-11.856	
766.300	-19.999	
766.400	2.992	
766.500	-12.002	
766.600	-19.097	
766.700	-12.100	
766.800	-26.379	
766.900	-12.037	
767.000	-16.111	
767.100	-26.098	
767.200	-1.679	
767.300	-11.303	
767.400	-20.008	
767.500	-16.649	
767.600	-14.649	
767.700	-15.051	
767.800	-6.178	
767.900	-10.624	
768.000	-22.172	
768.100	-12.612	
768.200	-15.687	
768.300	-26.492	
768.400	-14.584	
768.500	9.308	
768.600	-32.798	
768.700	-15.045	
768.800	-22.494	
768.900	-19.352	
769.000	-17.632	
769.100	-28.316	
769.200	-6.457	
769.300	-10.714	
769.400	-25.341	
769.500	-16.901	
769.600	-9.915	
769.700	0.904	
769.800	-16.961	
769.900	-27.216	
770.000	-20.569	
770.100	-1.132	
770.200	-22.216	
770.300	-17.588	
770.400	-1.900	
770.500	-14.197	
770.600	-5.807	
770.700	-9.867	
770.800	-22.127	
770.900	-16.113	
771.000	-26.248	
771.100	-19.860	
771.200	-16.913	
771.300	-13.421	
771.400	-5.783	
771.500	-15.740	
771.600	-15.696	
771.700	-19.716	
771.800	-15.951	
771.900	-16.766	
772.000	-13.809	
772.100	-19.868	
772.200	-9.836	
772.300	-10.726	
772.400	-13.290	
772.500	-12.729	
772.600	-38.118	
772.700	-14.065	
772.800	-0.683	
772.900	-25.380	
773.000	-6.590	
773.100	-3.658	
773.200	-9.077	
773.300	-20.227	
773.400	-15.595	
773.500	-8.550	
773.600	-12.960	
773.700	-17.662	
773.800	-17.437	
773.900	-18.408	
774.000	-15.098	
774.100	-15.578	
774.200	-8.908	
774.300	-10.451	
774.400	-2.354	
774.500	-18.175	
774.600	-16.973	
774.700	-22.428	
774.800	-12.856	
774.900	-3.978	
775.000	-14.538	
775.100	-16.051	
775.200	-10.495	
775.300	-16.419	
775.400	-2.876	
775.500	-20.964	
775.600	-18.659	
775.700	-26.469	
775.800	-15.851	
775.900	-12.462	
776.000	-21.882	
776.100	-11.021	
776.200	-17.500	
776.300	-13.156	
776.400	-19.662	
776.500	-7.178	
776.600	-16.761	
776.700	-20.107	
776.800	-3.368	
776.900	-14.961	
777.000	-27.443	
777.100	-13.945	
777.200	-16.696	
777.300	-16.678	
777.400	-13.575	
777.500	-3.833	
777.600	-10.313	
777.700	-28.094	
777.800	-7.033	
777.900	-6.650	
778.000	-25.222	
778.100	-13.553	
778.200	-13.883	
778.300	-13.207	
778.400	-12.265	
778.500	14.906	
778.600	-5.373	
778.700	-17.558	
778.800	-7.615	
778.900	-13.890	
779.000	-18.749	
779.100	-19.068	
779.200	-8.305	
779.300	2.405	
779.400	-23.014	
779.500	0.015	
779.600	-18.614	
779.700	-15.509	
779.800	-21.774	
779.900	-9.265	
780.000	-6.747	
780.100	-13.009	
780.200	-14.964	
780.300	-11.647	
780.400	-2.864	
780.500	-11.278	
780.600	-25.584	
780.700	9.274	
780.800	-0.862	
780.900	11.178	
781.000	12.824	
781.100	21.912	
781.200	33.376	
781.300	33.136	
781.400	38.301	
781.500	46.017	
781.600	47.139	
781.700	26.195	
781.800	39.858	
781.900	39.676	
782.000	33.018	
782.100	48.343	
782.200	35.190	
782.300	47.284	
782.400	46.878	
782.500	36.944	
782.600	26.439	
782.700	36.415	
782.800	57.571	
782.900	33.800	
783.000	27.790	
783.100	36.556	
783.200	47.236	
783.300	26.289	
783.400	36.031	
783.500	24.006	
783.600	40.958	
783.700	38.404	
783.800	33.382	
783.900	36.690	
784.000	35.998	
784.100	33.611	
784.200	24.231	
784.300	27.225	
784.400	35.024	
784.500	23.254	
784.600	28.979	
784.700	27.484	
784.800	25.179	
784.900	33.354	
785.000	18.506	
785.100	26.892	
785.200	30.607	
785.300	31.481	
785.400	28.621	
785.500	39.508	
785.600	38.214	
785.700	10.048	
785.800	16.905	
785.900	34.365	
786.000	29.937	
786.100	36.890	
786.200	29.815	
786.300	22.121	
786.400	37.337	
786.500	28.589	
786.600	2.077	
786.700	26.064	
786.800	39.649	
786.900	54.338	
787.000	30.097	
787.100	35.489	
787.200	30.695	
787.300	44.950	
787.400	46.917	
787.500	40.102	
787.600	37.965	
787.700	32.485	
787.800	45.249	
787.900	29.853	
788.000	39.705	
788.100	43.144	
788.200	46.470	
788.300	47.562	
788.400	50.263	
788.500	44.924	
788.600	50.682	
788.700	56.096	
788.800	46.038	
788.900	51.066	
789.000	44.070	
789.100	48.453	
789.200	36.280	
789.300	52.022	
789.400	50.737	
789.500	48.968	
789.600	44.275	
789.700	49.797	
789.800	54.654	
789.900	28.979	
790.000	40.824	
790.100	35.531	
790.200	47.066	
790.300	44.441	
790.400	46.199	
790.500	52.010	
790.600	48.895	
790.700	42.273	
790.800	48.297	
790.900	59.884	
791.000	60.394	
791.100	47.216	
791.200	46.239	
791.300	56.448	
791.400	56.158	
791.500	57.508	
791.600	55.407	
791.700	48.847	
791.800	51.338	
791.900	43.600	
792.000	66.883	
792.100	29.785	
792.200	41.228	
792.300	51.378	
792.400	44.063	
792.500	43.375	
792.600	41.570	
792.700	54.910	
792.800	51.608	
792.900	59.673	
793.000	46.513	
793.100	66.159	
793.200	54.828	
793.300	56.559	
793.400	56.489	
793.500	46.388	
793.600	52.634	
793.700	40.244	
793.800	56.176	
793.900	58.701	
794.000	59.066	
794.100	60.630	
794.200	54.141	
794.300	41.617	
794.400	53.745	
794.500	46.020	
794.600	63.851	
794.700	59.495	
794.800	59.639	
794.900	27.854	
795.000	45.291	
795.100	63.916	
795.200	58.991	
795.300	65.227	
795.400	61.398	
795.500	45.240	
795.600	48.778	
795.700	60.414	
795.800	52.750	
795.900	49.815	
796.000	54.924	
796.100	58.963	
796.200	59.219	
796.300	59.065	
796.400	48.008	
796.500	62.079	
796.600	55.676	
796.700	42.507	
796.800	72.432	
796.900	65.798	
797.000	58.429	
797.100	54.966	
797.200	45.221	
797.300	54.160	
797.400	50.490	
797.500	50.711	
797.600	60.019	
797.700	51.806	
797.800	53.646	
797.900	51.851	
798.000	51.350	
798.100	52.659	
798.200	52.288	
798.300	57.041	
798.400	80.372	
798.500	63.949	
798.600	49.798	
798.700	58.777	
798.800	60.722	
798.900	60.398	
799.000	45.342	
799.100	54.202	
799.200	59.572	
799.300	46.722	
799.400	51.718	
799.500	47.599	
799.600	58.973	
799.700	54.327	
799.800	61.358	
799.900	55.468	
800.000	63.020	
