time /s	I /nA	
0.100	19.696	
0.200	6.028	
0.300	9.215	
0.400	6.292	
0.500	-1.186	
0.600	-9.755	
0.700	-3.419	
0.800	6.739	
0.900	-7.461	
1.000	0.551	
1.100	6.369	
1.200	-1.334	
1.300	-1.235	
1.400	-0.446	
1.500	-3.380	
1.600	5.029	
1.700	8.019	
1.800	1.740	
1.900	-6.772	
2.000	-17.617	
2.100	-7.428	
2.200	-3.135	
2.300	20.862	
2.400	-0.665	
2.500	-3.903	
2.600	-7.158	
2.700	-11.277	
2.800	0.571	
2.900	-22.595	
3.000	-4.028	
3.100	-6.298	
3.200	-1.542	
3.300	0.538	
3.400	-10.138	
3.500	8.508	
3.600	-3.883	
3.700	-4.022	
3.800	10.731	
3.900	-5.125	
4.000	-9.527	
4.100	-8.460	
4.200	9.209	
4.300	0.257	
4.400	-5.487	
4.500	-19.136	
4.600	-2.617	
4.700	-12.274	
4.800	-6.123	
4.900	-10.491	
5.000	11.003	
5.100	4.521	
5.200	-1.201	
5.300	-1.306	
5.400	-5.623	
5.500	-8.720	
5.600	3.149	
5.700	9.071	
5.800	-3.556	
5.900	5.489	
6.000	-11.833	
6.100	-12.575	
6.200	17.481	
6.300	-3.381	
6.400	-6.213	
6.500	15.375	
6.600	-11.916	
6.700	12.813	
6.800	-2.438	
6.900	-9.291	
7.000	7.491	
7.100	8.797	
7.200	-11.421	
7.300	6.287	
7.400	7.318	
7.500	-3.039	
7.600	-19.937	
7.700	4.656	
7.800	-6.454	
7.900	-3.018	
8.000	3.715	
8.100	-2.589	
8.200	13.405	
8.300	-10.050	
8.400	-0.755	
8.500	0.413	
8.600	-8.061	
8.700	9.003	
8.800	-3.191	
8.900	-3.937	
9.000	0.402	
9.100	2.111	
9.200	-3.757	
9.300	4.354	
9.400	-16.103	
9.500	4.072	
9.600	-0.029	
9.700	-11.501	
9.800	-9.516	
9.900	-0.246	
10.000	-8.524	
10.100	4.406	
10.200	-9.605	
10.300	6.974	
10.400	-2.126	
10.500	2.207	
10.600	-5.944	
10.700	-12.401	
10.800	2.410	
10.900	-5.449	
11.000	-4.024	
11.100	-4.175	
11.200	-5.490	
11.300	1.121	
11.400	-2.111	
11.500	-0.905	
11.600	-4.285	
11.700	1.116	
11.800	1.159	
11.900	4.757	
12.000	-5.198	
12.100	-6.095	
12.200	-2.154	
12.300	-10.059	
12.400	9.104	
12.500	-17.557	
12.600	-2.044	
12.700	1.612	
12.800	2.534	
12.900	-2.739	
13.000	-8.029	
13.100	0.225	
13.200	-3.174	
13.300	-7.857	
13.400	1.734	
13.500	2.168	
13.600	-8.309	
13.700	-0.380	
13.800	13.689	
13.900	-8.764	
14.000	9.425	
14.100	-12.000	
14.200	-4.339	
14.300	-8.169	
14.400	-3.506	
14.500	-4.451	
14.600	-4.424	
14.700	-6.044	
14.800	-3.600	
14.900	5.008	
15.000	3.585	
15.100	-5.635	
15.200	-12.144	
15.300	8.977	
15.400	1.703	
15.500	-8.870	
15.600	0.114	
15.700	-9.982	
15.800	1.163	
15.900	-11.603	
16.000	2.003	
16.100	6.954	
16.200	-11.918	
16.300	1.011	
16.400	-4.597	
16.500	-5.658	
16.600	-3.953	
16.700	-2.160	
16.800	1.986	
16.900	-5.355	
17.000	5.214	
17.100	-13.360	
17.200	14.757	
17.300	-7.837	
17.400	-3.677	
17.500	-3.946	
17.600	12.401	
17.700	2.342	
17.800	-4.329	
17.900	0.854	
18.000	-17.956	
18.100	3.553	
18.200	0.801	
18.300	5.854	
18.400	7.832	
18.500	-4.322	
18.600	0.198	
18.700	-15.032	
18.800	-12.087	
18.900	-15.017	
19.000	1.718	
19.100	-2.713	
19.200	-12.160	
19.300	-13.682	
19.400	-1.980	
19.500	-0.003	
19.600	-13.886	
19.700	2.669	
19.800	-9.692	
19.900	-0.364	
20.000	-19.531	
20.100	-1.098	
20.200	3.870	
20.300	11.428	
20.400	-22.550	
20.500	8.029	
20.600	-11.599	
20.700	1.929	
20.800	5.239	
20.900	-4.544	
21.000	-3.595	
21.100	-18.892	
21.200	-3.846	
21.300	-4.108	
21.400	-5.440	
21.500	4.955	
21.600	-10.295	
21.700	2.511	
21.800	-8.053	
21.900	-1.494	
22.000	8.776	
22.100	-5.504	
22.200	-2.496	
22.300	-10.387	
22.400	-1.512	
22.500	-9.654	
22.600	-1.584	
22.700	-4.071	
22.800	-15.351	
22.900	-10.927	
23.000	-7.444	
23.100	-5.542	
23.200	-6.376	
23.300	5.333	
23.400	-10.215	
23.500	-2.971	
23.600	-12.915	
23.700	-6.669	
23.800	6.186	
23.900	-0.209	
24.000	3.800	
24.100	-13.050	
24.200	12.343	
24.300	-14.109	
24.400	-2.572	
24.500	10.553	
24.600	2.395	
24.700	-6.668	
24.800	-3.738	
24.900	-0.633	
25.000	-1.567	
25.100	4.674	
25.200	0.583	
25.300	1.802	
25.400	-9.108	
25.500	-3.684	
25.600	-1.718	
25.700	-0.188	
25.800	-11.459	
25.900	-4.219	
26.000	10.024	
26.100	-5.125	
26.200	-9.926	
26.300	-2.899	
26.400	1.559	
26.500	-10.516	
26.600	-2.404	
26.700	-4.145	
26.800	-6.256	
26.900	-12.658	
27.000	-3.563	
27.100	-6.946	
27.200	-0.364	
27.300	-2.386	
27.400	-12.270	
27.500	2.887	
27.600	13.347	
27.700	-15.457	
27.800	6.781	
27.900	0.962	
28.000	-11.363	
28.100	2.792	
28.200	6.735	
28.300	-7.365	
28.400	1.190	
28.500	-2.226	
28.600	-14.249	
28.700	4.570	
28.800	-7.164	
28.900	-1.956	
29.000	-9.371	
29.100	-2.904	
29.200	1.413	
29.300	-1.205	
29.400	-7.244	
29.500	-10.917	
29.600	2.588	
29.700	-12.115	
29.800	8.786	
29.900	12.914	
30.000	3.809	
30.100	3.476	
30.200	12.340	
30.300	3.867	
30.400	9.543	
30.500	7.402	
30.600	6.898	
30.700	24.932	
30.800	14.584	
30.900	22.521	
31.000	25.960	
31.100	22.570	
31.200	16.471	
31.300	14.566	
31.400	24.376	
31.500	20.119	
31.600	16.736	
31.700	8.866	
31.800	28.243	
31.900	12.275	
32.000	22.432	
32.100	13.668	
32.200	14.341	
32.300	19.620	
32.400	14.737	
32.500	21.559	
32.600	20.478	
32.700	19.571	
32.800	26.657	
32.900	16.071	
33.000	26.400	
33.100	14.148	
33.200	22.624	
33.300	13.317	
33.400	18.469	
33.500	20.899	
33.600	12.477	
33.700	21.602	
33.800	16.540	
33.900	12.996	
34.000	21.064	
34.100	-4.961	
34.200	20.788	
34.300	10.591	
34.400	15.355	
34.500	26.808	
34.600	6.300	
34.700	13.442	
34.800	32.046	
34.900	31.640	
35.000	31.549	
35.100	17.274	
35.200	21.013	
35.300	34.069	
35.400	10.163	
35.500	21.511	
35.600	27.496	
35.700	26.433	
35.800	28.536	
35.900	40.783	
36.000	29.985	
36.100	21.307	
36.200	28.815	
36.300	39.670	
36.400	41.499	
36.500	34.758	
36.600	20.724	
36.700	35.447	
36.800	36.726	
36.900	23.884	
37.000	48.119	
37.100	38.035	
37.200	28.798	
37.300	40.243	
37.400	45.108	
37.500	34.537	
37.600	40.124	
37.700	41.676	
37.800	36.665	
37.900	40.361	
38.000	41.206	
38.100	34.592	
38.200	47.682	
38.300	34.117	
38.400	50.782	
38.500	36.341	
38.600	49.118	
38.700	41.378	
38.800	35.775	
38.900	37.644	
39.000	33.324	
39.100	51.701	
39.200	36.643	
39.300	48.565	
39.400	53.805	
39.500	41.716	
39.600	53.101	
39.700	53.776	
39.800	46.714	
39.900	37.853	
40.000	60.960	
40.100	43.487	
40.200	42.367	
40.300	45.563	
40.400	54.998	
40.500	46.700	
40.600	42.126	
40.700	57.301	
40.800	41.544	
40.900	45.055	
41.000	43.169	
41.100	46.298	
41.200	45.975	
41.300	55.527	
41.400	47.909	
41.500	36.143	
41.600	38.724	
41.700	42.439	
41.800	32.337	
41.900	39.193	
42.000	54.278	
42.100	53.892	
42.200	50.009	
42.300	40.158	
42.400	42.486	
42.500	46.369	
42.600	29.980	
42.700	38.264	
42.800	44.230	
42.900	40.796	
43.000	37.952	
43.100	48.293	
43.200	41.017	
43.300	39.528	
43.400	53.800	
43.500	36.725	
43.600	32.104	
43.700	48.484	
43.800	53.659	
43.900	41.541	
44.000	38.495	
44.100	43.535	
44.200	51.271	
44.300	33.750	
44.400	48.482	
44.500	36.573	
44.600	34.477	
44.700	46.649	
44.800	32.930	
44.900	33.863	
45.000	43.557	
45.100	41.183	
45.200	51.422	
45.300	37.524	
45.400	40.279	
45.500	44.350	
45.600	14.576	
45.700	45.406	
45.800	44.513	
45.900	19.178	
46.000	45.552	
46.100	44.251	
46.200	35.285	
46.300	43.486	
46.400	54.205	
46.500	26.777	
46.600	48.373	
46.700	32.930	
46.800	39.436	
46.900	28.821	
47.000	32.624	
47.100	36.817	
47.200	35.097	
47.300	19.040	
47.400	47.249	
47.500	29.919	
47.600	38.603	
47.700	30.692	
47.800	16.756	
47.900	36.180	
48.000	21.306	
48.100	27.433	
48.200	23.062	
48.300	28.679	
48.400	23.698	
48.500	27.879	
48.600	12.314	
48.700	47.846	
48.800	13.755	
48.900	14.448	
49.000	34.369	
49.100	20.090	
49.200	28.269	
49.300	33.653	
49.400	24.791	
49.500	11.491	
49.600	29.291	
49.700	26.935	
49.800	23.770	
49.900	25.657	
50.000	25.157	
50.100	5.380	
50.200	19.020	
50.300	29.618	
50.400	28.234	
50.500	19.927	
50.600	21.056	
50.700	12.361	
50.800	32.753	
50.900	8.684	
51.000	41.399	
51.100	20.867	
51.200	18.688	
51.300	26.349	
51.400	19.374	
51.500	31.338	
51.600	25.275	
51.700	12.001	
51.800	26.985	
51.900	27.982	
52.000	18.513	
52.100	18.472	
52.200	26.365	
52.300	21.676	
52.400	13.891	
52.500	18.977	
52.600	32.621	
52.700	24.724	
52.800	20.232	
52.900	22.163	
53.000	23.460	
53.100	28.337	
53.200	21.811	
53.300	15.267	
53.400	16.950	
53.500	18.750	
53.600	23.476	
53.700	18.766	
53.800	15.791	
53.900	19.281	
54.000	25.004	
54.100	11.220	
54.200	15.835	
54.300	19.877	
54.400	17.952	
54.500	17.131	
54.600	18.333	
54.700	24.204	
54.800	7.863	
54.900	19.096	
55.000	25.572	
55.100	13.936	
55.200	20.846	
55.300	14.763	
55.400	13.309	
55.500	17.017	
55.600	20.134	
55.700	33.184	
55.800	27.282	
55.900	12.973	
56.000	10.826	
56.100	18.718	
56.200	16.605	
56.300	19.411	
56.400	22.288	
56.500	20.793	
56.600	15.667	
56.700	22.037	
56.800	19.325	
56.900	17.497	
57.000	33.256	
57.100	7.469	
57.200	17.082	
57.300	15.476	
57.400	31.481	
57.500	19.122	
57.600	10.487	
57.700	21.882	
57.800	7.138	
57.900	3.004	
58.000	29.017	
58.100	10.753	
58.200	26.952	
58.300	6.108	
58.400	10.222	
58.500	18.282	
58.600	17.057	
58.700	18.395	
58.800	18.884	
58.900	21.391	
59.000	23.620	
59.100	25.550	
59.200	14.624	
59.300	22.662	
59.400	20.950	
59.500	21.681	
59.600	21.979	
59.700	32.330	
59.800	18.134	
59.900	9.954	
60.000	16.024	
60.100	36.404	
60.200	16.983	
60.300	13.730	
60.400	17.509	
60.500	35.838	
60.600	12.826	
60.700	18.660	
60.800	14.564	
60.900	21.147	
61.000	31.795	
61.100	14.967	
61.200	36.396	
61.300	19.994	
61.400	24.047	
61.500	2.601	
61.600	5.414	
61.700	24.292	
61.800	26.052	
61.900	23.083	
62.000	30.742	
62.100	20.757	
62.200	23.802	
62.300	23.268	
62.400	17.134	
62.500	19.507	
62.600	22.961	
62.700	16.326	
62.800	22.313	
62.900	11.894	
63.000	16.631	
63.100	12.611	
63.200	26.617	
63.300	10.530	
63.400	17.194	
63.500	27.208	
63.600	3.385	
63.700	22.714	
63.800	11.726	
63.900	27.613	
64.000	23.124	
64.100	16.284	
64.200	26.054	
64.300	21.438	
64.400	12.258	
64.500	19.981	
64.600	16.058	
64.700	31.330	
64.800	26.987	
64.900	19.817	
65.000	23.941	
65.100	9.399	
65.200	44.635	
65.300	23.983	
65.400	17.809	
65.500	25.785	
65.600	19.257	
65.700	10.406	
65.800	24.392	
65.900	12.636	
66.000	8.538	
66.100	7.445	
66.200	18.771	
66.300	12.912	
66.400	37.673	
66.500	18.916	
66.600	24.987	
66.700	8.015	
66.800	33.261	
66.900	24.383	
67.000	20.246	
67.100	20.638	
67.200	21.863	
67.300	24.674	
67.400	16.548	
67.500	37.089	
67.600	26.522	
67.700	5.190	
67.800	14.795	
67.900	26.706	
68.000	9.590	
68.100	26.247	
68.200	23.678	
68.300	28.114	
68.400	22.463	
68.500	12.333	
68.600	24.696	
68.700	15.638	
68.800	28.318	
68.900	22.890	
69.000	34.706	
69.100	23.726	
69.200	21.716	
69.300	28.003	
69.400	19.599	
69.500	13.485	
69.600	25.124	
69.700	18.649	
69.800	25.141	
69.900	22.305	
70.000	11.440	
70.100	20.467	
70.200	24.427	
70.300	11.880	
70.400	21.416	
70.500	28.631	
70.600	11.353	
70.700	26.441	
70.800	15.639	
70.900	25.226	
71.000	35.749	
71.100	18.477	
71.200	16.248	
71.300	27.852	
71.400	19.343	
71.500	14.736	
71.600	27.085	
71.700	28.225	
71.800	12.120	
71.900	6.603	
72.000	29.027	
72.100	20.755	
72.200	24.855	
72.300	7.353	
72.400	35.069	
72.500	36.527	
72.600	26.710	
72.700	14.409	
72.800	9.828	
72.900	15.046	
73.000	16.891	
73.100	14.902	
73.200	30.543	
73.300	24.295	
73.400	16.882	
73.500	31.427	
73.600	15.445	
73.700	25.412	
73.800	21.206	
73.900	18.168	
74.000	33.343	
74.100	20.279	
74.200	17.409	
74.300	15.303	
74.400	24.766	
74.500	24.809	
74.600	31.904	
74.700	18.565	
74.800	17.237	
74.900	18.508	
75.000	16.484	
75.100	17.358	
75.200	24.671	
75.300	5.339	
75.400	31.200	
75.500	37.979	
75.600	19.547	
75.700	22.484	
75.800	21.330	
75.900	25.301	
76.000	25.932	
76.100	24.024	
76.200	15.431	
76.300	26.142	
76.400	11.254	
76.500	29.731	
76.600	13.178	
76.700	12.032	
76.800	27.400	
76.900	26.590	
77.000	13.958	
77.100	28.749	
77.200	25.484	
77.300	13.241	
77.400	15.654	
77.500	34.376	
77.600	34.622	
77.700	22.983	
77.800	14.776	
77.900	14.525	
78.000	20.810	
78.100	28.736	
78.200	24.636	
78.300	14.010	
78.400	16.442	
78.500	23.723	
78.600	19.574	
78.700	33.161	
78.800	18.039	
78.900	21.266	
79.000	15.416	
79.100	20.842	
79.200	22.809	
79.300	9.691	
79.400	20.653	
79.500	33.030	
79.600	28.666	
79.700	10.371	
79.800	34.999	
79.900	28.348	
80.000	4.905	
80.100	16.921	
80.200	39.054	
80.300	12.796	
80.400	23.424	
80.500	16.440	
80.600	24.933	
80.700	24.514	
80.800	25.723	
80.900	27.878	
81.000	20.342	
81.100	20.787	
81.200	16.285	
81.300	24.477	
81.400	27.131	
81.500	21.240	
81.600	23.142	
81.700	13.483	
81.800	26.441	
81.900	13.190	
82.000	26.748	
82.100	1.193	
82.200	38.028	
82.300	24.570	
82.400	19.494	
82.500	22.208	
82.600	30.985	
82.700	4.580	
82.800	32.361	
82.900	12.902	
83.000	31.202	
83.100	20.158	
83.200	19.104	
83.300	29.806	
83.400	18.289	
83.500	16.459	
83.600	26.431	
83.700	13.005	
83.800	35.090	
83.900	29.776	
84.000	5.902	
84.100	27.347	
84.200	25.973	
84.300	14.553	
84.400	34.641	
84.500	20.191	
84.600	21.607	
84.700	35.365	
84.800	28.589	
84.900	13.749	
85.000	29.079	
85.100	8.768	
85.200	16.400	
85.300	26.010	
85.400	25.214	
85.500	20.757	
85.600	13.147	
85.700	14.720	
85.800	20.765	
85.900	26.809	
86.000	18.639	
86.100	27.978	
86.200	21.193	
86.300	28.889	
86.400	14.401	
86.500	28.538	
86.600	20.395	
86.700	29.341	
86.800	27.969	
86.900	23.719	
87.000	29.329	
87.100	32.192	
87.200	17.367	
87.300	28.162	
87.400	21.435	
87.500	29.389	
87.600	24.463	
87.700	14.036	
87.800	26.686	
87.900	22.706	
88.000	28.069	
88.100	29.623	
88.200	25.587	
88.300	21.485	
88.400	20.236	
88.500	7.048	
88.600	27.459	
88.700	13.826	
88.800	25.058	
88.900	23.105	
89.000	39.379	
89.100	34.003	
89.200	22.974	
89.300	30.467	
89.400	13.932	
89.500	33.073	
89.600	26.856	
89.700	14.191	
89.800	22.919	
89.900	24.507	
90.000	28.000	
90.100	7.827	
90.200	13.406	
90.300	-1.999	
90.400	12.503	
90.500	9.054	
90.600	1.518	
90.700	22.353	
90.800	3.551	
90.900	15.365	
91.000	1.869	
91.100	2.260	
91.200	-7.978	
91.300	-4.847	
91.400	-1.185	
91.500	-9.270	
91.600	5.617	
91.700	-8.860	
91.800	-2.041	
91.900	-18.340	
92.000	-14.761	
92.100	-13.070	
92.200	-16.529	
92.300	1.190	
92.400	-21.122	
92.500	-10.096	
92.600	-6.810	
92.700	-4.906	
92.800	-8.802	
92.900	-24.566	
93.000	-6.552	
93.100	-15.742	
93.200	-13.256	
93.300	-18.016	
93.400	-17.815	
93.500	-19.672	
93.600	-17.769	
93.700	-8.845	
93.800	-17.976	
93.900	-26.063	
94.000	-16.401	
94.100	-19.041	
94.200	-12.296	
94.300	-37.821	
94.400	-35.100	
94.500	-26.393	
94.600	-21.115	
94.700	-26.199	
94.800	-19.838	
94.900	-30.626	
95.000	-26.281	
95.100	-33.390	
95.200	-24.201	
95.300	-21.862	
95.400	-35.321	
95.500	-25.986	
95.600	-19.516	
95.700	-18.370	
95.800	-28.879	
95.900	-24.378	
96.000	-27.869	
96.100	-24.748	
96.200	-38.081	
96.300	-28.811	
96.400	-14.278	
96.500	-36.154	
96.600	-11.291	
96.700	-19.073	
96.800	-28.955	
96.900	-41.971	
97.000	-11.772	
97.100	-5.534	
97.200	-18.408	
97.300	-23.248	
97.400	-11.041	
97.500	-7.442	
97.600	-18.310	
97.700	-30.579	
97.800	-13.745	
97.900	-26.414	
98.000	-20.907	
98.100	-8.518	
98.200	-7.386	
98.300	-23.769	
98.400	-20.838	
98.500	-13.898	
98.600	-27.736	
98.700	-13.708	
98.800	-11.814	
98.900	-21.405	
99.000	-4.614	
99.100	-24.256	
99.200	-31.697	
99.300	-4.910	
99.400	-10.927	
99.500	-17.222	
99.600	-16.143	
99.700	-17.386	
99.800	-15.241	
99.900	-9.732	
100.000	-7.919	
100.100	-15.705	
100.200	-19.047	
100.300	-3.421	
100.400	-8.890	
100.500	-9.955	
100.600	-7.644	
100.700	-17.229	
100.800	-11.896	
100.900	-15.428	
101.000	-15.314	
101.100	-1.734	
101.200	-14.675	
101.300	-16.776	
101.400	1.559	
101.500	-9.021	
101.600	-15.286	
101.700	-9.978	
101.800	-7.025	
101.900	-24.464	
102.000	-3.594	
102.100	1.658	
102.200	-7.791	
102.300	-7.478	
102.400	-12.811	
102.500	-13.274	
102.600	0.720	
102.700	-9.743	
102.800	-10.838	
102.900	-7.212	
103.000	-6.481	
103.100	-3.879	
103.200	-28.781	
103.300	3.459	
103.400	-9.740	
103.500	-4.747	
103.600	-18.611	
103.700	-8.679	
103.800	-8.221	
103.900	-4.432	
104.000	-6.762	
104.100	-3.530	
104.200	-14.908	
104.300	-2.907	
104.400	-1.558	
104.500	-20.964	
104.600	-4.062	
104.700	-16.688	
104.800	-4.154	
104.900	0.116	
105.000	-8.272	
105.100	-4.766	
105.200	-12.285	
105.300	2.128	
105.400	-7.979	
105.500	-18.802	
105.600	-3.245	
105.700	-8.811	
105.800	-12.802	
105.900	-17.801	
106.000	-5.331	
106.100	-16.377	
106.200	-2.314	
106.300	-3.169	
106.400	0.631	
106.500	-12.220	
106.600	-14.674	
106.700	14.357	
106.800	-5.207	
106.900	-2.507	
107.000	-3.017	
107.100	-7.567	
107.200	-3.684	
107.300	-15.703	
107.400	-8.134	
107.500	4.813	
107.600	-19.419	
107.700	-14.976	
107.800	5.411	
107.900	1.819	
108.000	-11.123	
108.100	-4.398	
108.200	-10.721	
108.300	-12.088	
108.400	-4.738	
108.500	-7.786	
108.600	2.152	
108.700	-12.129	
108.800	-22.562	
108.900	-12.749	
109.000	-9.877	
109.100	5.036	
109.200	-7.767	
109.300	-3.523	
109.400	-5.700	
109.500	-9.371	
109.600	-5.692	
109.700	9.494	
109.800	-10.943	
109.900	-7.378	
110.000	-9.321	
110.100	-11.671	
110.200	-24.547	
110.300	-16.080	
110.400	2.199	
110.500	-10.151	
110.600	5.677	
110.700	-5.383	
110.800	-11.910	
110.900	-20.221	
111.000	-0.402	
111.100	1.404	
111.200	-4.587	
111.300	-9.077	
111.400	-3.115	
111.500	-1.845	
111.600	-28.252	
111.700	-2.921	
111.800	15.884	
111.900	-28.582	
112.000	-3.353	
112.100	-21.698	
112.200	-9.711	
112.300	-13.530	
112.400	-1.321	
112.500	-15.369	
112.600	-11.125	
112.700	-10.599	
112.800	-0.524	
112.900	-7.086	
113.000	-11.391	
113.100	-9.664	
113.200	-10.073	
113.300	-9.700	
113.400	-5.682	
113.500	11.908	
113.600	-13.771	
113.700	-13.407	
113.800	-9.067	
113.900	-13.773	
114.000	-3.536	
114.100	-16.079	
114.200	-6.721	
114.300	-16.301	
114.400	-3.379	
114.500	-10.506	
114.600	7.630	
114.700	5.913	
114.800	-0.344	
114.900	-12.056	
115.000	-12.602	
115.100	-8.703	
115.200	-4.321	
115.300	-20.632	
115.400	-4.016	
115.500	-1.382	
115.600	-10.829	
115.700	-12.560	
115.800	-23.221	
115.900	5.043	
116.000	-16.244	
116.100	-14.178	
116.200	-7.569	
116.300	-19.448	
116.400	2.542	
116.500	8.536	
116.600	-3.062	
116.700	-10.141	
116.800	-4.893	
116.900	-11.283	
117.000	-1.823	
117.100	-14.547	
117.200	-3.610	
117.300	0.525	
117.400	-5.379	
117.500	-14.606	
117.600	-7.499	
117.700	-20.649	
117.800	-5.513	
117.900	-6.674	
118.000	-1.087	
118.100	-11.775	
118.200	-11.778	
118.300	3.063	
118.400	-7.029	
118.500	-16.047	
118.600	-2.242	
118.700	-17.597	
118.800	-6.270	
118.900	-9.455	
119.000	-10.972	
119.100	-5.420	
119.200	-29.303	
119.300	-10.490	
119.400	1.413	
119.500	-3.060	
119.600	-13.782	
119.700	-12.415	
119.800	-1.717	
119.900	-7.494	
120.000	-10.328	
120.100	-5.244	
120.200	-5.656	
120.300	-3.439	
120.400	-12.270	
120.500	1.032	
120.600	-10.811	
120.700	-14.465	
120.800	-9.162	
120.900	-17.870	
121.000	9.611	
121.100	-11.479	
121.200	-19.119	
121.300	-12.229	
121.400	-4.083	
121.500	-4.145	
121.600	-9.647	
121.700	-8.211	
121.800	-8.742	
121.900	-22.072	
122.000	-9.446	
122.100	-13.926	
122.200	-0.104	
122.300	-33.364	
122.400	8.265	
122.500	-11.445	
122.600	-0.083	
122.700	-18.257	
122.800	-13.424	
122.900	-21.453	
123.000	1.866	
123.100	-6.387	
123.200	-18.539	
123.300	3.530	
123.400	-2.736	
123.500	-0.387	
123.600	-10.793	
123.700	-16.198	
123.800	-19.012	
123.900	1.502	
124.000	-2.023	
124.100	-7.081	
124.200	-15.303	
124.300	-1.925	
124.400	-14.677	
124.500	-7.233	
124.600	-12.020	
124.700	-11.708	
124.800	-1.165	
124.900	-13.988	
125.000	-10.366	
125.100	-4.323	
125.200	-6.899	
125.300	-22.446	
125.400	-5.539	
125.500	-5.853	
125.600	-18.709	
125.700	-12.816	
125.800	-2.767	
125.900	-5.169	
126.000	-17.500	
126.100	-3.707	
126.200	-4.898	
126.300	-8.771	
126.400	-15.546	
126.500	-5.859	
126.600	-5.129	
126.700	-0.898	
126.800	-11.786	
126.900	-3.236	
127.000	-3.204	
127.100	-14.538	
127.200	-0.134	
127.300	-5.611	
127.400	-12.340	
127.500	-3.856	
127.600	-16.099	
127.700	-2.741	
127.800	-15.743	
127.900	-0.667	
128.000	0.946	
128.100	-28.823	
128.200	-14.740	
128.300	-9.411	
128.400	-4.233	
128.500	-0.432	
128.600	-10.785	
128.700	-11.811	
128.800	2.161	
128.900	-7.991	
129.000	-12.105	
129.100	-9.371	
129.200	-12.042	
129.300	-8.929	
129.400	3.970	
129.500	-13.643	
129.600	-5.118	
129.700	1.280	
129.800	-13.727	
129.900	-0.374	
130.000	-19.137	
130.100	-3.436	
130.200	-17.705	
130.300	14.781	
130.400	-8.527	
130.500	-16.040	
130.600	-0.477	
130.700	-8.345	
130.800	-21.048	
130.900	-13.892	
131.000	-15.745	
131.100	1.070	
131.200	-6.037	
131.300	-8.431	
131.400	-10.446	
131.500	-4.804	
131.600	-8.162	
131.700	-6.971	
131.800	-9.149	
131.900	-14.280	
132.000	-21.622	
132.100	5.991	
132.200	3.245	
132.300	-5.622	
132.400	-20.192	
132.500	6.421	
132.600	-1.360	
132.700	-12.215	
132.800	-17.912	
132.900	1.194	
133.000	-7.806	
133.100	-12.668	
133.200	-9.597	
133.300	-16.988	
133.400	7.564	
133.500	-10.691	
133.600	-6.152	
133.700	-16.512	
133.800	-2.803	
133.900	-8.073	
134.000	-8.449	
134.100	6.985	
134.200	-10.321	
134.300	-13.896	
134.400	-6.100	
134.500	-15.747	
134.600	-8.411	
134.700	-7.544	
134.800	-10.611	
134.900	-1.413	
135.000	-0.437	
135.100	-2.760	
135.200	4.995	
135.300	1.060	
135.400	-1.281	
135.500	-19.746	
135.600	-6.214	
135.700	-7.848	
135.800	3.107	
135.900	-15.951	
136.000	-22.710	
136.100	-0.905	
136.200	-0.174	
136.300	-12.245	
136.400	-12.151	
136.500	-4.446	
136.600	-15.901	
136.700	-21.169	
136.800	2.031	
136.900	-13.884	
137.000	-8.522	
137.100	-16.952	
137.200	-2.027	
137.300	8.445	
137.400	-4.329	
137.500	-4.839	
137.600	-7.993	
137.700	-10.047	
137.800	-5.061	
137.900	-10.654	
138.000	-7.191	
138.100	-11.765	
138.200	-11.902	
138.300	-3.059	
138.400	-10.581	
138.500	-22.936	
138.600	-15.472	
138.700	-18.865	
138.800	-3.454	
138.900	-16.411	
139.000	-2.168	
139.100	8.387	
139.200	-9.770	
139.300	-34.018	
139.400	-8.018	
139.500	-7.186	
139.600	-14.378	
139.700	-10.597	
139.800	-19.864	
139.900	-21.054	
140.000	-3.156	
140.100	-5.995	
140.200	-6.820	
140.300	-14.663	
140.400	-14.128	
140.500	-10.761	
140.600	-16.067	
140.700	-11.489	
140.800	-4.744	
140.900	-13.384	
141.000	-6.973	
141.100	-7.295	
141.200	0.149	
141.300	-10.139	
141.400	-11.621	
141.500	-13.274	
141.600	4.040	
141.700	-9.965	
141.800	-5.759	
141.900	-12.221	
142.000	1.069	
142.100	-10.178	
142.200	-20.559	
142.300	-5.429	
142.400	-0.558	
142.500	-11.912	
142.600	-1.561	
142.700	-6.091	
142.800	-1.305	
142.900	-15.094	
143.000	-3.562	
143.100	-17.860	
143.200	-6.263	
143.300	-18.956	
143.400	-4.565	
143.500	-9.404	
143.600	-1.795	
143.700	-15.076	
143.800	-2.029	
143.900	3.242	
144.000	-14.763	
144.100	0.654	
144.200	-11.687	
144.300	1.118	
144.400	-8.452	
144.500	-9.286	
144.600	-20.950	
144.700	-14.514	
144.800	-12.058	
144.900	-7.693	
145.000	-1.241	
145.100	-5.697	
145.200	-10.680	
145.300	5.094	
145.400	-10.136	
145.500	-14.965	
145.600	-12.170	
145.700	-17.213	
145.800	-7.492	
145.900	-5.170	
146.000	-7.929	
146.100	-15.432	
146.200	-3.129	
146.300	-9.606	
146.400	-6.521	
146.500	-8.017	
146.600	4.272	
146.700	-6.295	
146.800	-7.471	
146.900	-12.628	
147.000	0.926	
147.100	-2.886	
147.200	-6.320	
147.300	-5.803	
147.400	-16.854	
147.500	-6.483	
147.600	-2.588	
147.700	-12.031	
147.800	-3.799	
147.900	-6.929	
148.000	-5.079	
148.100	4.890	
148.200	-5.862	
148.300	-17.175	
148.400	-20.180	
148.500	16.719	
148.600	0.788	
148.700	5.082	
148.800	-10.846	
148.900	-6.092	
149.000	8.035	
149.100	-7.680	
149.200	-21.756	
149.300	-8.644	
149.400	3.711	
149.500	1.817	
149.600	-8.901	
149.700	-1.623	
149.800	-0.320	
149.900	-28.737	
150.000	-7.529	
150.100	-2.219	
150.200	-2.607	
150.300	-9.709	
150.400	-6.228	
150.500	-6.962	
150.600	-16.164	
150.700	-12.096	
150.800	-2.650	
150.900	6.162	
151.000	-17.960	
151.100	-12.991	
151.200	-13.280	
151.300	-7.145	
151.400	-4.597	
151.500	-4.571	
151.600	-11.053	
151.700	-19.728	
151.800	-2.732	
151.900	-5.886	
152.000	-1.428	
152.100	4.313	
152.200	-17.441	
152.300	-14.369	
152.400	3.197	
152.500	-9.242	
152.600	-16.997	
152.700	-10.510	
152.800	-2.581	
152.900	-2.425	
153.000	-8.826	
153.100	-0.785	
153.200	-21.399	
153.300	2.443	
153.400	-2.343	
153.500	-16.868	
153.600	7.704	
153.700	-23.093	
153.800	-14.433	
153.900	-4.428	
154.000	-6.296	
154.100	10.593	
154.200	-21.038	
154.300	11.566	
154.400	-16.769	
154.500	9.688	
154.600	-10.170	
154.700	13.733	
154.800	-8.351	
154.900	-16.761	
155.000	-5.651	
155.100	0.017	
155.200	-0.389	
155.300	0.366	
155.400	2.816	
155.500	-19.317	
155.600	2.102	
155.700	2.370	
155.800	-20.307	
155.900	2.063	
156.000	-18.603	
156.100	1.233	
156.200	-0.602	
156.300	-8.872	
156.400	-4.007	
156.500	2.112	
156.600	-16.155	
156.700	-11.732	
156.800	-1.705	
156.900	-9.640	
157.000	-0.895	
157.100	-7.186	
157.200	1.915	
157.300	-10.531	
157.400	0.911	
157.500	-11.801	
157.600	-22.707	
157.700	6.192	
157.800	3.091	
157.900	-20.440	
158.000	-9.921	
158.100	-4.590	
158.200	-2.630	
158.300	-7.675	
158.400	-12.946	
158.500	-6.546	
158.600	-4.395	
158.700	-2.689	
158.800	10.124	
158.900	-9.012	
159.000	-0.843	
159.100	-9.831	
159.200	-4.665	
159.300	-9.968	
159.400	1.590	
159.500	-14.131	
159.600	12.755	
159.700	-2.654	
159.800	-8.169	
159.900	-10.479	
160.000	-14.410	
160.100	1.212	
160.200	-1.501	
160.300	1.376	
160.400	-8.886	
160.500	-5.299	
160.600	-10.358	
160.700	-16.401	
160.800	-6.811	
160.900	8.061	
161.000	2.092	
161.100	-24.391	
161.200	-1.411	
161.300	4.161	
161.400	-14.348	
161.500	-3.525	
161.600	-9.463	
161.700	-1.825	
161.800	2.108	
161.900	-12.744	
162.000	-8.022	
162.100	4.462	
162.200	-5.542	
162.300	-11.804	
162.400	-13.917	
162.500	1.181	
162.600	-3.643	
162.700	-4.365	
162.800	-7.868	
162.900	-8.647	
163.000	4.561	
163.100	-11.176	
163.200	-15.514	
163.300	-7.671	
163.400	5.448	
163.500	-6.759	
163.600	4.913	
163.700	-2.268	
163.800	6.247	
163.900	-2.565	
164.000	-13.958	
164.100	-2.116	
164.200	-7.868	
164.300	-4.409	
164.400	-5.423	
164.500	-7.552	
164.600	-3.102	
164.700	-16.194	
164.800	-10.636	
164.900	-21.556	
165.000	-8.126	
165.100	3.623	
165.200	-7.992	
165.300	-0.437	
165.400	-9.585	
165.500	15.839	
165.600	-7.960	
165.700	-4.481	
165.800	5.312	
165.900	-0.851	
166.000	-10.487	
166.100	0.123	
166.200	-3.050	
166.300	-8.475	
166.400	-1.238	
166.500	-3.095	
166.600	-22.934	
166.700	-4.564	
166.800	-9.917	
166.900	-3.648	
167.000	-6.203	
167.100	-11.801	
167.200	-8.930	
167.300	-6.217	
167.400	1.448	
167.500	-1.962	
167.600	-3.622	
167.700	-0.087	
167.800	-7.828	
167.900	-4.659	
168.000	-17.859	
168.100	3.203	
168.200	-3.960	
168.300	-6.073	
168.400	-6.976	
168.500	-11.746	
168.600	3.868	
168.700	5.455	
168.800	-11.035	
168.900	-10.067	
169.000	-14.766	
169.100	-6.243	
169.200	-4.256	
169.300	1.052	
169.400	-10.708	
169.500	2.716	
169.600	-14.092	
169.700	-0.107	
169.800	-9.498	
169.900	-1.856	
170.000	4.065	
170.100	-6.743	
170.200	-7.231	
170.300	6.754	
170.400	-0.395	
170.500	-16.389	
170.600	-12.886	
170.700	9.944	
170.800	-4.482	
170.900	-4.177	
171.000	-1.423	
171.100	-22.513	
171.200	-2.797	
171.300	14.515	
171.400	-4.226	
171.500	3.098	
171.600	-13.223	
171.700	-9.556	
171.800	-5.117	
171.900	-4.771	
172.000	-5.119	
172.100	5.166	
172.200	-29.430	
172.300	-2.189	
172.400	8.601	
172.500	-7.852	
172.600	-10.144	
172.700	3.811	
172.800	-8.209	
172.900	-7.823	
173.000	-14.778	
173.100	-7.222	
173.200	-22.274	
173.300	-17.835	
173.400	13.113	
173.500	-12.334	
173.600	-10.277	
173.700	-6.615	
173.800	-13.758	
173.900	-7.081	
174.000	4.773	
174.100	4.029	
174.200	-5.929	
174.300	-1.901	
174.400	-11.456	
174.500	-2.328	
174.600	3.470	
174.700	-5.274	
174.800	-2.471	
174.900	-3.769	
175.000	-12.908	
175.100	-0.839	
175.200	-12.698	
175.300	-1.876	
175.400	-8.089	
175.500	-13.539	
175.600	-2.409	
175.700	-5.798	
175.800	5.406	
175.900	-10.753	
176.000	-6.866	
176.100	4.297	
176.200	-0.917	
176.300	1.662	
176.400	-2.386	
176.500	-11.398	
176.600	-14.357	
176.700	5.757	
176.800	-4.019	
176.900	6.186	
177.000	-7.084	
177.100	3.879	
177.200	-5.886	
177.300	-7.265	
177.400	1.658	
177.500	8.124	
177.600	4.483	
177.700	-9.822	
177.800	-8.875	
177.900	-9.115	
178.000	1.082	
178.100	-11.374	
178.200	-1.453	
178.300	-5.793	
178.400	-8.829	
178.500	-15.725	
178.600	-25.275	
178.700	-5.960	
178.800	-7.054	
178.900	-1.484	
179.000	-9.052	
179.100	4.767	
179.200	-4.214	
179.300	-6.465	
179.400	-3.481	
179.500	7.714	
179.600	-8.840	
179.700	4.248	
179.800	-1.174	
179.900	4.469	
180.000	7.380	
180.100	-4.855	
180.200	2.398	
180.300	0.186	
180.400	13.824	
180.500	27.729	
180.600	8.074	
180.700	24.692	
180.800	12.778	
180.900	16.657	
181.000	27.372	
181.100	14.296	
181.200	21.470	
181.300	22.425	
181.400	18.464	
181.500	32.521	
181.600	22.737	
181.700	26.587	
181.800	11.289	
181.900	10.472	
182.000	14.817	
182.100	34.362	
182.200	22.479	
182.300	26.267	
182.400	27.504	
182.500	20.071	
182.600	20.120	
182.700	11.526	
182.800	12.967	
182.900	26.147	
183.000	24.820	
183.100	5.495	
183.200	30.273	
183.300	25.101	
183.400	16.957	
183.500	30.588	
183.600	23.824	
183.700	28.483	
183.800	8.669	
183.900	23.817	
184.000	25.228	
184.100	25.340	
184.200	18.977	
184.300	19.327	
184.400	20.505	
184.500	9.834	
184.600	20.112	
184.700	11.520	
184.800	15.725	
184.900	9.375	
185.000	20.944	
185.100	15.946	
185.200	19.646	
185.300	17.552	
185.400	19.161	
185.500	21.095	
185.600	18.880	
185.700	29.888	
185.800	18.382	
185.900	-2.128	
186.000	33.248	
186.100	27.523	
186.200	33.647	
186.300	18.769	
186.400	16.552	
186.500	19.339	
186.600	22.637	
186.700	25.652	
186.800	8.940	
186.900	18.641	
187.000	12.641	
187.100	27.809	
187.200	24.463	
187.300	13.134	
187.400	39.900	
187.500	26.116	
187.600	31.098	
187.700	27.288	
187.800	16.793	
187.900	33.256	
188.000	27.396	
188.100	29.215	
188.200	27.039	
188.300	28.205	
188.400	11.463	
188.500	15.483	
188.600	23.112	
188.700	25.099	
188.800	39.268	
188.900	32.516	
189.000	12.104	
189.100	52.437	
189.200	38.548	
189.300	33.945	
189.400	31.503	
189.500	29.215	
189.600	31.115	
189.700	43.402	
189.800	21.543	
189.900	40.493	
190.000	27.297	
190.100	29.741	
190.200	32.413	
190.300	37.114	
190.400	29.356	
190.500	28.638	
190.600	45.134	
190.700	54.931	
190.800	39.417	
190.900	31.494	
191.000	34.192	
191.100	46.816	
191.200	28.787	
191.300	30.900	
191.400	32.821	
191.500	32.838	
191.600	38.947	
191.700	43.181	
191.800	30.084	
191.900	28.354	
192.000	40.389	
192.100	29.204	
192.200	33.586	
192.300	52.640	
192.400	48.037	
192.500	35.113	
192.600	32.164	
192.700	38.084	
192.800	38.559	
192.900	38.410	
193.000	13.809	
193.100	51.886	
193.200	43.082	
193.300	34.334	
193.400	32.601	
193.500	32.457	
193.600	30.057	
193.700	34.687	
193.800	48.759	
193.900	28.685	
194.000	44.756	
194.100	56.152	
194.200	35.628	
194.300	53.377	
194.400	36.306	
194.500	39.121	
194.600	31.244	
194.700	45.705	
194.800	30.451	
194.900	56.316	
195.000	45.771	
195.100	45.033	
195.200	41.683	
195.300	32.807	
195.400	47.139	
195.500	39.562	
195.600	32.882	
195.700	43.668	
195.800	37.126	
195.900	45.978	
196.000	33.767	
196.100	43.090	
196.200	41.597	
196.300	51.057	
196.400	32.359	
196.500	37.645	
196.600	25.376	
196.700	36.506	
196.800	39.858	
196.900	29.350	
197.000	43.035	
197.100	15.257	
197.200	41.411	
197.300	44.144	
197.400	42.873	
197.500	32.081	
197.600	33.616	
197.700	39.874	
197.800	32.148	
197.900	38.380	
198.000	47.674	
198.100	34.464	
198.200	37.497	
198.300	45.078	
198.400	30.121	
198.500	44.112	
198.600	37.371	
198.700	26.559	
198.800	43.367	
198.900	37.910	
199.000	35.569	
199.100	31.489	
199.200	44.688	
199.300	53.856	
199.400	39.845	
199.500	41.257	
199.600	39.593	
199.700	34.040	
199.800	42.449	
199.900	35.832	
200.000	43.990	
200.100	31.895	
200.200	27.276	
200.300	52.968	
200.400	26.704	
200.500	38.886	
200.600	32.548	
200.700	38.954	
200.800	52.163	
200.900	41.872	
201.000	41.551	
201.100	42.891	
201.200	50.955	
201.300	43.259	
201.400	30.866	
201.500	42.112	
201.600	35.427	
201.700	42.766	
201.800	34.014	
201.900	35.295	
202.000	41.801	
202.100	40.747	
202.200	40.697	
202.300	48.258	
202.400	52.032	
202.500	39.044	
202.600	34.501	
202.700	38.253	
202.800	40.462	
202.900	19.546	
203.000	41.973	
203.100	47.214	
203.200	30.802	
203.300	42.071	
203.400	29.459	
203.500	30.513	
203.600	43.201	
203.700	22.292	
203.800	40.741	
203.900	30.579	
204.000	39.757	
204.100	29.423	
204.200	32.149	
204.300	41.468	
204.400	35.486	
204.500	32.953	
204.600	34.674	
204.700	37.164	
204.800	38.071	
204.900	25.664	
205.000	24.573	
205.100	35.497	
205.200	41.311	
205.300	28.579	
205.400	43.965	
205.500	28.654	
205.600	28.968	
205.700	51.314	
205.800	22.268	
205.900	39.711	
206.000	32.448	
206.100	32.970	
206.200	27.144	
206.300	53.952	
206.400	40.229	
206.500	36.748	
206.600	32.383	
206.700	27.128	
206.800	32.653	
206.900	48.156	
207.000	44.466	
207.100	42.244	
207.200	49.636	
207.300	23.232	
207.400	44.696	
207.500	37.492	
207.600	36.210	
207.700	38.910	
207.800	42.555	
207.900	21.791	
208.000	37.521	
208.100	35.590	
208.200	47.887	
208.300	23.611	
208.400	33.352	
208.500	36.108	
208.600	37.046	
208.700	50.831	
208.800	29.099	
208.900	32.994	
209.000	26.674	
209.100	41.777	
209.200	42.160	
209.300	26.121	
209.400	29.378	
209.500	33.285	
209.600	37.141	
209.700	34.765	
209.800	19.646	
209.900	29.499	
210.000	36.246	
210.100	38.320	
210.200	38.907	
210.300	36.266	
210.400	36.368	
210.500	34.876	
210.600	50.257	
210.700	29.504	
210.800	42.654	
210.900	37.491	
211.000	28.448	
211.100	29.422	
211.200	35.719	
211.300	29.577	
211.400	33.541	
211.500	31.892	
211.600	22.836	
211.700	33.936	
211.800	36.381	
211.900	35.667	
212.000	30.059	
212.100	46.862	
212.200	35.279	
212.300	26.910	
212.400	43.960	
212.500	27.563	
212.600	19.745	
212.700	28.396	
212.800	42.402	
212.900	25.935	
213.000	40.457	
213.100	30.074	
213.200	41.202	
213.300	30.983	
213.400	24.383	
213.500	39.767	
213.600	35.038	
213.700	37.512	
213.800	28.401	
213.900	35.835	
214.000	22.418	
214.100	36.506	
214.200	27.591	
214.300	29.181	
214.400	44.025	
214.500	47.018	
214.600	20.330	
214.700	33.056	
214.800	42.352	
214.900	21.527	
215.000	42.222	
215.100	17.495	
215.200	33.713	
215.300	35.021	
215.400	20.495	
215.500	30.191	
215.600	28.256	
215.700	46.213	
215.800	31.032	
215.900	24.022	
216.000	29.023	
216.100	37.458	
216.200	26.921	
216.300	38.470	
216.400	32.674	
216.500	41.302	
216.600	27.763	
216.700	44.215	
216.800	32.285	
216.900	22.367	
217.000	38.055	
217.100	33.260	
217.200	43.175	
217.300	33.698	
217.400	32.791	
217.500	42.319	
217.600	30.535	
217.700	22.392	
217.800	27.049	
217.900	39.667	
218.000	46.687	
218.100	36.923	
218.200	18.900	
218.300	22.043	
218.400	25.844	
218.500	24.265	
218.600	42.674	
218.700	45.117	
218.800	23.942	
218.900	35.721	
219.000	18.497	
219.100	39.392	
219.200	32.201	
219.300	46.161	
219.400	26.690	
219.500	46.989	
219.600	26.846	
219.700	27.552	
219.800	28.165	
219.900	33.534	
220.000	20.711	
220.100	23.696	
220.200	39.341	
220.300	34.379	
220.400	32.771	
220.500	32.658	
220.600	23.911	
220.700	46.754	
220.800	23.256	
220.900	37.951	
221.000	31.187	
221.100	30.723	
221.200	47.285	
221.300	33.313	
221.400	31.345	
221.500	38.490	
221.600	28.609	
221.700	47.750	
221.800	44.596	
221.900	32.148	
222.000	23.680	
222.100	36.468	
222.200	36.947	
222.300	28.454	
222.400	41.430	
222.500	25.110	
222.600	25.492	
222.700	40.083	
222.800	36.722	
222.900	18.099	
223.000	36.202	
223.100	38.397	
223.200	28.483	
223.300	30.570	
223.400	43.230	
223.500	37.200	
223.600	33.530	
223.700	31.948	
223.800	23.052	
223.900	42.339	
224.000	45.530	
224.100	32.785	
224.200	33.790	
224.300	31.499	
224.400	30.472	
224.500	27.493	
224.600	38.132	
224.700	23.245	
224.800	39.257	
224.900	22.677	
225.000	28.877	
225.100	25.552	
225.200	32.278	
225.300	25.926	
225.400	23.676	
225.500	34.871	
225.600	37.656	
225.700	33.381	
225.800	26.464	
225.900	42.413	
226.000	31.756	
226.100	35.916	
226.200	26.951	
226.300	26.964	
226.400	43.771	
226.500	27.071	
226.600	25.946	
226.700	32.907	
226.800	26.981	
226.900	22.300	
227.000	51.342	
227.100	30.146	
227.200	32.594	
227.300	27.465	
227.400	27.854	
227.500	30.399	
227.600	27.490	
227.700	27.531	
227.800	27.848	
227.900	49.061	
228.000	29.291	
228.100	28.314	
228.200	28.973	
228.300	33.029	
228.400	37.763	
228.500	27.590	
228.600	38.146	
228.700	37.836	
228.800	29.321	
228.900	43.324	
229.000	31.110	
229.100	39.125	
229.200	27.752	
229.300	26.068	
229.400	42.656	
229.500	27.262	
229.600	31.034	
229.700	36.386	
229.800	35.509	
229.900	26.482	
230.000	20.551	
230.100	31.588	
230.200	32.658	
230.300	43.196	
230.400	24.012	
230.500	36.327	
230.600	15.082	
230.700	30.517	
230.800	42.147	
230.900	32.657	
231.000	23.425	
231.100	42.626	
231.200	27.162	
231.300	40.777	
231.400	27.758	
231.500	30.690	
231.600	24.177	
231.700	41.239	
231.800	19.154	
231.900	35.456	
232.000	36.247	
232.100	28.552	
232.200	34.582	
232.300	31.411	
232.400	38.487	
232.500	42.903	
232.600	18.764	
232.700	31.772	
232.800	21.404	
232.900	26.562	
233.000	39.442	
233.100	13.790	
233.200	26.963	
233.300	32.131	
233.400	46.349	
233.500	22.817	
233.600	29.578	
233.700	34.497	
233.800	32.185	
233.900	35.043	
234.000	40.046	
234.100	22.432	
234.200	43.672	
234.300	19.688	
234.400	31.109	
234.500	36.575	
234.600	27.217	
234.700	23.599	
234.800	38.001	
234.900	37.756	
235.000	27.393	
235.100	40.253	
235.200	21.628	
235.300	38.058	
235.400	35.844	
235.500	27.355	
235.600	43.929	
235.700	36.448	
235.800	32.542	
235.900	33.077	
236.000	37.406	
236.100	30.833	
236.200	28.398	
236.300	32.933	
236.400	25.156	
236.500	33.419	
236.600	52.829	
236.700	15.160	
236.800	25.377	
236.900	36.283	
237.000	30.127	
237.100	35.844	
237.200	34.180	
237.300	13.510	
237.400	30.145	
237.500	20.648	
237.600	39.311	
237.700	29.305	
237.800	34.448	
237.900	15.846	
238.000	33.826	
238.100	41.092	
238.200	36.432	
238.300	35.599	
238.400	30.997	
238.500	46.816	
238.600	19.884	
238.700	33.622	
238.800	34.006	
238.900	37.438	
239.000	41.556	
239.100	35.087	
239.200	31.449	
239.300	31.661	
239.400	23.027	
239.500	24.405	
239.600	33.881	
239.700	33.262	
239.800	26.560	
239.900	22.913	
240.000	38.248	
240.100	26.515	
240.200	33.843	
240.300	28.521	
240.400	18.053	
240.500	20.258	
240.600	8.006	
240.700	13.044	
240.800	-0.040	
240.900	8.757	
241.000	0.901	
241.100	14.365	
241.200	-6.161	
241.300	-0.667	
241.400	15.397	
241.500	-2.068	
241.600	1.028	
241.700	5.844	
241.800	-17.988	
241.900	-0.763	
242.000	-2.361	
242.100	3.065	
242.200	0.684	
242.300	3.560	
242.400	-9.318	
242.500	-11.840	
242.600	-15.439	
242.700	4.184	
242.800	-17.151	
242.900	-7.993	
243.000	-7.728	
243.100	-0.338	
243.200	-22.574	
243.300	-4.594	
243.400	-2.648	
243.500	-5.577	
243.600	-4.708	
243.700	-10.249	
243.800	1.967	
243.900	-10.931	
244.000	-3.448	
244.100	-16.189	
244.200	-17.713	
244.300	-10.638	
244.400	-23.014	
244.500	-9.459	
244.600	-11.578	
244.700	-7.386	
244.800	-8.791	
244.900	-9.905	
245.000	-18.197	
245.100	-17.114	
245.200	-21.262	
245.300	-22.887	
245.400	-6.894	
245.500	1.528	
245.600	-11.081	
245.700	-4.040	
245.800	-13.755	
245.900	-14.922	
246.000	-6.079	
246.100	-21.386	
246.200	-4.111	
246.300	-13.965	
246.400	-14.330	
246.500	-9.857	
246.600	-3.239	
246.700	-9.505	
246.800	-6.913	
246.900	-27.208	
247.000	1.459	
247.100	-23.388	
247.200	5.826	
247.300	-19.978	
247.400	2.806	
247.500	-15.381	
247.600	-15.521	
247.700	-23.268	
247.800	-18.811	
247.900	-14.314	
248.000	-6.714	
248.100	-17.177	
248.200	-9.440	
248.300	-13.854	
248.400	-2.223	
248.500	-16.683	
248.600	-6.326	
248.700	-7.725	
248.800	-18.821	
248.900	-6.585	
249.000	-5.409	
249.100	-23.424	
249.200	-16.490	
249.300	5.323	
249.400	-14.936	
249.500	-13.387	
249.600	5.479	
249.700	-4.479	
249.800	-26.546	
249.900	-2.558	
250.000	-0.259	
250.100	-5.275	
250.200	-6.473	
250.300	-7.168	
250.400	-14.550	
250.500	-1.901	
250.600	-6.968	
250.700	-0.303	
250.800	-15.849	
250.900	-20.665	
251.000	4.282	
251.100	-21.760	
251.200	0.702	
251.300	-16.058	
251.400	-4.376	
251.500	-1.843	
251.600	-9.267	
251.700	-14.541	
251.800	-3.578	
251.900	-26.385	
252.000	-9.012	
252.100	-26.441	
252.200	8.843	
252.300	-14.404	
252.400	-22.036	
252.500	8.014	
252.600	-11.784	
252.700	-9.504	
252.800	-11.120	
252.900	-6.146	
253.000	-2.394	
253.100	-18.817	
253.200	-3.393	
253.300	-10.055	
253.400	1.257	
253.500	-6.522	
253.600	-25.155	
253.700	-5.509	
253.800	2.830	
253.900	-11.843	
254.000	-8.121	
254.100	-4.661	
254.200	-19.946	
254.300	-5.525	
254.400	-4.635	
254.500	6.647	
254.600	-15.631	
254.700	1.840	
254.800	-20.580	
254.900	-15.533	
255.000	-7.758	
255.100	8.421	
255.200	-14.735	
255.300	-11.547	
255.400	-7.667	
255.500	-14.077	
255.600	-21.176	
255.700	-9.353	
255.800	-16.761	
255.900	-7.207	
256.000	-18.735	
256.100	-12.157	
256.200	-10.933	
256.300	-6.909	
256.400	-3.129	
256.500	-8.558	
256.600	-8.153	
256.700	-26.005	
256.800	-20.535	
256.900	-13.537	
257.000	-21.089	
257.100	7.167	
257.200	-2.713	
257.300	-13.088	
257.400	-13.024	
257.500	-11.058	
257.600	2.293	
257.700	-8.933	
257.800	-7.862	
257.900	-15.444	
258.000	19.385	
258.100	-3.774	
258.200	-20.554	
258.300	-14.138	
258.400	-12.071	
258.500	9.279	
258.600	-23.229	
258.700	-20.773	
258.800	-8.994	
258.900	-7.625	
259.000	-17.199	
259.100	-9.607	
259.200	-2.044	
259.300	-7.553	
259.400	-14.523	
259.500	2.263	
259.600	-5.777	
259.700	-9.372	
259.800	-11.929	
259.900	-8.336	
260.000	-3.036	
260.100	-15.492	
260.200	0.767	
260.300	-24.093	
260.400	-17.189	
260.500	-13.442	
260.600	-5.644	
260.700	-5.456	
260.800	-20.389	
260.900	-16.186	
261.000	-10.691	
261.100	-11.791	
261.200	-12.229	
261.300	-4.758	
261.400	-20.270	
261.500	-9.605	
261.600	-10.417	
261.700	-4.179	
261.800	-9.985	
261.900	-25.234	
262.000	-5.102	
262.100	-21.210	
262.200	5.219	
262.300	-14.791	
262.400	-15.350	
262.500	7.631	
262.600	-7.880	
262.700	-20.890	
262.800	-1.964	
262.900	-18.221	
263.000	-18.318	
263.100	-7.425	
263.200	-6.203	
263.300	-10.655	
263.400	-13.650	
263.500	-1.594	
263.600	-7.628	
263.700	0.230	
263.800	-10.151	
263.900	-11.662	
264.000	-29.340	
264.100	-4.151	
264.200	-20.381	
264.300	-13.769	
264.400	-14.824	
264.500	-9.038	
264.600	-12.697	
264.700	-5.475	
264.800	-16.305	
264.900	-11.818	
265.000	-8.123	
265.100	-9.397	
265.200	-11.552	
265.300	-10.879	
265.400	-4.232	
265.500	-20.309	
265.600	-10.407	
265.700	-10.172	
265.800	-9.365	
265.900	-9.282	
266.000	-16.327	
266.100	-9.550	
266.200	1.017	
266.300	-8.277	
266.400	-14.756	
266.500	-10.264	
266.600	-3.993	
266.700	-16.160	
266.800	-8.464	
266.900	-12.963	
267.000	-16.528	
267.100	-22.716	
267.200	-5.700	
267.300	-19.216	
267.400	-8.057	
267.500	-4.806	
267.600	7.929	
267.700	-18.230	
267.800	-20.446	
267.900	-15.168	
268.000	-3.182	
268.100	-16.229	
268.200	-13.967	
268.300	-26.789	
268.400	-9.482	
268.500	-5.349	
268.600	-15.786	
268.700	-16.433	
268.800	-20.212	
268.900	-25.661	
269.000	-14.440	
269.100	-5.695	
269.200	-7.221	
269.300	-16.639	
269.400	3.737	
269.500	-22.682	
269.600	-12.790	
269.700	-12.848	
269.800	-12.128	
269.900	0.818	
270.000	-12.762	
270.100	-19.588	
270.200	-21.110	
270.300	-15.552	
270.400	-20.355	
270.500	-8.732	
270.600	-9.218	
270.700	-14.496	
270.800	-21.008	
270.900	-7.557	
271.000	-11.400	
271.100	5.823	
271.200	-2.653	
271.300	-10.047	
271.400	-17.360	
271.500	-2.440	
271.600	-3.752	
271.700	-21.617	
271.800	-6.741	
271.900	-13.648	
272.000	-14.304	
272.100	-4.666	
272.200	-16.511	
272.300	-16.706	
272.400	-14.159	
272.500	-14.304	
272.600	-3.312	
272.700	-15.129	
272.800	-28.241	
272.900	-42.330	
273.000	-14.912	
273.100	-12.658	
273.200	-9.701	
273.300	-17.033	
273.400	-10.002	
273.500	-16.982	
273.600	-5.796	
273.700	-14.285	
273.800	-15.275	
273.900	-15.090	
274.000	-8.301	
274.100	-6.241	
274.200	-24.634	
274.300	-16.688	
274.400	-11.393	
274.500	-26.077	
274.600	-4.931	
274.700	-17.105	
274.800	-18.071	
274.900	-10.457	
275.000	-13.358	
275.100	-13.999	
275.200	-17.269	
275.300	-12.860	
275.400	-19.561	
275.500	-20.698	
275.600	3.865	
275.700	-17.307	
275.800	-26.302	
275.900	-9.196	
276.000	-9.739	
276.100	-9.269	
276.200	-9.329	
276.300	-5.171	
276.400	-12.052	
276.500	-14.572	
276.600	-12.930	
276.700	-19.794	
276.800	-17.652	
276.900	-14.166	
277.000	7.171	
277.100	0.564	
277.200	-14.653	
277.300	-10.841	
277.400	-10.336	
277.500	-24.496	
277.600	-10.532	
277.700	-10.903	
277.800	-26.133	
277.900	-12.768	
278.000	-14.965	
278.100	-35.918	
278.200	-11.960	
278.300	-10.600	
278.400	-18.067	
278.500	-12.025	
278.600	-3.540	
278.700	-7.497	
278.800	-24.411	
278.900	-15.718	
279.000	-19.230	
279.100	-8.042	
279.200	-14.360	
279.300	-14.284	
279.400	-17.500	
279.500	-10.199	
279.600	-20.197	
279.700	-11.736	
279.800	-3.326	
279.900	-10.819	
280.000	-17.064	
280.100	-13.478	
280.200	4.399	
280.300	-23.025	
280.400	-13.853	
280.500	3.474	
280.600	-12.704	
280.700	4.575	
280.800	-21.979	
280.900	-10.392	
281.000	-9.922	
281.100	-6.090	
281.200	4.012	
281.300	-13.110	
281.400	-15.157	
281.500	-10.455	
281.600	-0.285	
281.700	-8.975	
281.800	-1.474	
281.900	-16.028	
282.000	-19.682	
282.100	-25.077	
282.200	-12.133	
282.300	-3.744	
282.400	-17.943	
282.500	-9.664	
282.600	-17.302	
282.700	-16.140	
282.800	-8.735	
282.900	-9.828	
283.000	-6.584	
283.100	-6.296	
283.200	-6.213	
283.300	-9.411	
283.400	-11.687	
283.500	-22.587	
283.600	-17.737	
283.700	-12.387	
283.800	-10.698	
283.900	-10.014	
284.000	-10.084	
284.100	-14.243	
284.200	-12.109	
284.300	-7.357	
284.400	-5.450	
284.500	-23.781	
284.600	-16.651	
284.700	-8.084	
284.800	-18.835	
284.900	-6.596	
285.000	-17.295	
285.100	-0.155	
285.200	-11.272	
285.300	-9.904	
285.400	-15.597	
285.500	-6.490	
285.600	-19.993	
285.700	-7.206	
285.800	-13.320	
285.900	-6.533	
286.000	-7.575	
286.100	-22.347	
286.200	-19.157	
286.300	-6.569	
286.400	-23.202	
286.500	-16.321	
286.600	-0.152	
286.700	-17.596	
286.800	-23.372	
286.900	-9.526	
287.000	-15.296	
287.100	-11.299	
287.200	-3.564	
287.300	-1.857	
287.400	-5.289	
287.500	-19.787	
287.600	-10.931	
287.700	-7.656	
287.800	-14.634	
287.900	5.811	
288.000	-22.917	
288.100	-4.655	
288.200	-19.576	
288.300	-25.363	
288.400	-10.068	
288.500	-8.762	
288.600	-11.672	
288.700	-15.317	
288.800	-10.879	
288.900	-14.717	
289.000	-12.557	
289.100	1.312	
289.200	-4.024	
289.300	-14.863	
289.400	-19.938	
289.500	1.210	
289.600	-9.757	
289.700	-18.901	
289.800	-6.482	
289.900	-21.298	
290.000	-7.026	
290.100	-1.658	
290.200	3.155	
290.300	-16.140	
290.400	-17.366	
290.500	-8.559	
290.600	-10.059	
290.700	-1.769	
290.800	-14.883	
290.900	-3.353	
291.000	-10.308	
291.100	-14.478	
291.200	-23.907	
291.300	-18.246	
291.400	-4.965	
291.500	-15.241	
291.600	1.595	
291.700	-20.049	
291.800	-8.785	
291.900	-2.739	
292.000	-16.714	
292.100	-18.619	
292.200	-16.904	
292.300	-15.810	
292.400	-9.219	
292.500	-14.690	
292.600	-8.588	
292.700	-0.853	
292.800	-13.506	
292.900	-12.642	
293.000	0.368	
293.100	-12.987	
293.200	-30.239	
293.300	-7.076	
293.400	-16.919	
293.500	-15.758	
293.600	-12.562	
293.700	-4.603	
293.800	-9.569	
293.900	-7.850	
294.000	-15.906	
294.100	-3.181	
294.200	-8.002	
294.300	-3.000	
294.400	-4.970	
294.500	-12.925	
294.600	-17.140	
294.700	-4.765	
294.800	-21.976	
294.900	-2.516	
295.000	-7.495	
295.100	-19.085	
295.200	-20.756	
295.300	-24.620	
295.400	-11.416	
295.500	-17.927	
295.600	-14.468	
295.700	-19.213	
295.800	2.026	
295.900	-25.704	
296.000	-10.236	
296.100	-1.825	
296.200	-30.269	
296.300	-7.162	
296.400	-11.100	
296.500	-10.036	
296.600	0.208	
296.700	-26.376	
296.800	-9.153	
296.900	-24.396	
297.000	1.304	
297.100	-9.713	
297.200	-11.508	
297.300	-17.728	
297.400	-14.509	
297.500	-13.622	
297.600	-11.685	
297.700	-0.069	
297.800	-10.800	
297.900	-22.498	
298.000	-6.566	
298.100	-1.803	
298.200	-14.785	
298.300	-12.944	
298.400	-10.762	
298.500	-17.342	
298.600	-17.936	
298.700	-13.719	
298.800	-29.044	
298.900	-7.082	
299.000	-2.994	
299.100	-13.021	
299.200	-8.121	
299.300	-4.073	
299.400	-7.423	
299.500	0.773	
299.600	-7.523	
299.700	-3.014	
299.800	-24.413	
299.900	-6.735	
300.000	-8.729	
300.100	4.147	
300.200	0.738	
300.300	3.072	
300.400	-18.192	
300.500	-24.974	
300.600	-14.198	
300.700	-5.363	
300.800	-11.600	
300.900	-16.275	
301.000	0.199	
301.100	-4.307	
301.200	-9.617	
301.300	-12.164	
301.400	-15.332	
301.500	-3.927	
301.600	-1.047	
301.700	-13.316	
301.800	0.137	
301.900	-6.761	
302.000	-10.673	
302.100	-3.409	
302.200	-14.493	
302.300	-15.854	
302.400	0.211	
302.500	-19.509	
302.600	-14.314	
302.700	-15.146	
302.800	-6.809	
302.900	-4.173	
303.000	-8.210	
303.100	-8.680	
303.200	-11.791	
303.300	-0.874	
303.400	-25.397	
303.500	7.673	
303.600	-10.392	
303.700	-7.751	
303.800	-13.498	
303.900	-2.513	
304.000	0.456	
304.100	-11.345	
304.200	-8.010	
304.300	-3.976	
304.400	-6.134	
304.500	-11.710	
304.600	-7.796	
304.700	-21.131	
304.800	-1.087	
304.900	-10.640	
305.000	-12.949	
305.100	-9.298	
305.200	-6.073	
305.300	-6.951	
305.400	-4.017	
305.500	1.063	
305.600	-8.441	
305.700	-10.821	
305.800	-22.576	
305.900	4.913	
306.000	-9.488	
306.100	-7.908	
306.200	-19.300	
306.300	0.222	
306.400	-9.781	
306.500	3.302	
306.600	-7.966	
306.700	-29.158	
306.800	-2.569	
306.900	3.066	
307.000	-18.431	
307.100	-5.034	
307.200	-4.168	
307.300	-2.847	
307.400	-11.923	
307.500	0.298	
307.600	-15.488	
307.700	-23.718	
307.800	-9.449	
307.900	-1.387	
308.000	-20.797	
308.100	0.674	
308.200	-18.871	
308.300	-9.677	
308.400	-12.793	
308.500	-4.553	
308.600	-8.237	
308.700	-5.719	
308.800	-15.932	
308.900	-2.041	
309.000	-16.980	
309.100	-9.052	
309.200	-0.878	
309.300	1.375	
309.400	7.526	
309.500	-16.685	
309.600	-15.705	
309.700	0.456	
309.800	-14.944	
309.900	-17.398	
310.000	-13.947	
310.100	-4.039	
310.200	-14.928	
310.300	3.349	
310.400	-7.133	
310.500	-11.886	
310.600	-30.527	
310.700	-12.998	
310.800	-21.796	
310.900	-13.214	
311.000	-7.925	
311.100	-10.315	
311.200	-0.716	
311.300	-5.939	
311.400	-18.176	
311.500	-9.408	
311.600	-9.033	
311.700	-13.794	
311.800	-23.647	
311.900	3.715	
312.000	-1.820	
312.100	-13.181	
312.200	2.874	
312.300	-9.045	
312.400	-14.772	
312.500	-10.810	
312.600	1.895	
312.700	-12.486	
312.800	-10.199	
312.900	3.201	
313.000	-2.952	
313.100	-17.483	
313.200	-7.017	
313.300	-3.465	
313.400	-9.219	
313.500	-8.915	
313.600	-11.446	
313.700	-18.771	
313.800	10.627	
313.900	-5.879	
314.000	-5.824	
314.100	-7.551	
314.200	-16.015	
314.300	-2.973	
314.400	-11.465	
314.500	-12.545	
314.600	0.940	
314.700	3.263	
314.800	-0.433	
314.900	-0.595	
315.000	-9.543	
315.100	-12.473	
315.200	-5.892	
315.300	-7.991	
315.400	-9.619	
315.500	-21.215	
315.600	8.274	
315.700	-9.262	
315.800	-13.784	
315.900	3.788	
316.000	-7.417	
316.100	-2.096	
316.200	-2.355	
316.300	-8.355	
316.400	0.084	
316.500	0.593	
316.600	-3.298	
316.700	-5.618	
316.800	-8.946	
316.900	-2.965	
317.000	-13.059	
317.100	2.009	
317.200	-12.694	
317.300	-3.211	
317.400	-18.950	
317.500	-3.010	
317.600	-1.121	
317.700	-12.888	
317.800	-2.519	
317.900	-14.311	
318.000	-6.879	
318.100	-0.865	
318.200	-1.178	
318.300	-0.571	
318.400	-12.532	
318.500	2.578	
318.600	-0.199	
318.700	-14.025	
318.800	-9.890	
318.900	8.392	
319.000	-8.038	
319.100	1.898	
319.200	-13.953	
319.300	2.130	
319.400	0.969	
319.500	-16.141	
319.600	2.213	
319.700	-9.267	
319.800	-9.527	
319.900	-7.524	
320.000	-12.330	
320.100	0.240	
320.200	-10.693	
320.300	-10.409	
320.400	-0.149	
320.500	0.831	
320.600	-6.353	
320.700	-9.508	
320.800	-13.731	
320.900	-1.013	
321.000	-12.417	
321.100	-14.969	
321.200	-10.418	
321.300	-12.293	
321.400	-6.959	
321.500	-7.152	
321.600	2.291	
321.700	-10.703	
321.800	2.203	
321.900	-10.979	
322.000	-4.941	
322.100	-1.702	
322.200	0.874	
322.300	1.018	
322.400	-12.884	
322.500	-4.975	
322.600	-22.291	
322.700	-12.925	
322.800	-4.653	
322.900	-9.597	
323.000	4.446	
323.100	-1.164	
323.200	6.244	
323.300	-10.823	
323.400	1.209	
323.500	-22.784	
323.600	-3.947	
323.700	-7.511	
323.800	-20.400	
323.900	3.152	
324.000	-15.312	
324.100	-1.040	
324.200	-21.739	
324.300	-2.459	
324.400	-21.522	
324.500	1.784	
324.600	-6.646	
324.700	-10.955	
324.800	-17.907	
324.900	-3.245	
325.000	-2.257	
325.100	-18.026	
325.200	-7.961	
325.300	-9.157	
325.400	-12.719	
325.500	-1.434	
325.600	-16.443	
325.700	-8.206	
325.800	-14.026	
325.900	-9.804	
326.000	-6.194	
326.100	-6.691	
326.200	-0.829	
326.300	-4.596	
326.400	-9.046	
326.500	-7.447	
326.600	4.950	
326.700	-8.175	
326.800	-26.871	
326.900	-22.658	
327.000	-9.443	
327.100	2.207	
327.200	-3.640	
327.300	-14.548	
327.400	5.242	
327.500	-7.516	
327.600	-8.877	
327.700	-19.010	
327.800	-7.304	
327.900	-14.276	
328.000	6.575	
328.100	-9.660	
328.200	-8.289	
328.300	-21.562	
328.400	-8.304	
328.500	-3.232	
328.600	-6.662	
328.700	-1.694	
328.800	-14.724	
328.900	-16.571	
329.000	-15.947	
329.100	-8.847	
329.200	5.874	
329.300	-6.315	
329.400	-13.334	
329.500	-16.680	
329.600	-14.409	
329.700	-12.901	
329.800	5.901	
329.900	-23.601	
330.000	-18.491	
330.100	-5.936	
330.200	11.293	
330.300	-7.257	
330.400	21.452	
330.500	8.078	
330.600	2.872	
330.700	5.723	
330.800	9.433	
330.900	1.354	
331.000	33.442	
331.100	7.277	
331.200	12.531	
331.300	16.293	
331.400	19.610	
331.500	33.335	
331.600	40.460	
331.700	25.636	
331.800	11.429	
331.900	28.607	
332.000	22.327	
332.100	34.742	
332.200	41.151	
332.300	16.107	
332.400	26.320	
332.500	15.436	
332.600	28.139	
332.700	20.872	
332.800	31.335	
332.900	13.291	
333.000	18.298	
333.100	23.174	
333.200	20.222	
333.300	30.865	
333.400	19.986	
333.500	18.342	
333.600	23.497	
333.700	18.539	
333.800	2.877	
333.900	23.366	
334.000	21.081	
334.100	22.238	
334.200	16.615	
334.300	8.236	
334.400	18.694	
334.500	18.245	
334.600	19.013	
334.700	16.543	
334.800	9.407	
334.900	25.712	
335.000	8.620	
335.100	43.327	
335.200	15.100	
335.300	12.666	
335.400	27.338	
335.500	16.214	
335.600	8.608	
335.700	16.700	
335.800	19.111	
335.900	22.469	
336.000	14.718	
336.100	26.921	
336.200	27.523	
336.300	4.160	
336.400	12.578	
336.500	25.172	
336.600	14.675	
336.700	27.066	
336.800	16.116	
336.900	20.472	
337.000	28.843	
337.100	22.683	
337.200	14.302	
337.300	20.922	
337.400	28.719	
337.500	42.166	
337.600	27.220	
337.700	29.344	
337.800	27.922	
337.900	16.057	
338.000	15.781	
338.100	35.463	
338.200	26.623	
338.300	17.884	
338.400	25.492	
338.500	29.524	
338.600	21.286	
338.700	28.153	
338.800	25.383	
338.900	25.689	
339.000	9.782	
339.100	39.784	
339.200	26.142	
339.300	37.858	
339.400	24.538	
339.500	24.266	
339.600	26.268	
339.700	30.467	
339.800	23.337	
339.900	36.159	
340.000	22.499	
340.100	29.732	
340.200	35.270	
340.300	27.798	
340.400	40.961	
340.500	18.260	
340.600	33.733	
340.700	28.694	
340.800	35.827	
340.900	29.664	
341.000	34.766	
341.100	30.594	
341.200	39.617	
341.300	34.508	
341.400	25.810	
341.500	25.320	
341.600	33.019	
341.700	35.857	
341.800	26.894	
341.900	46.798	
342.000	33.943	
342.100	24.893	
342.200	37.451	
342.300	44.254	
342.400	22.207	
342.500	40.931	
342.600	28.151	
342.700	46.928	
342.800	38.587	
342.900	39.206	
343.000	50.043	
343.100	35.291	
343.200	31.223	
343.300	37.881	
343.400	29.159	
343.500	48.654	
343.600	38.095	
343.700	37.629	
343.800	40.458	
343.900	34.128	
344.000	32.957	
344.100	31.166	
344.200	36.982	
344.300	49.383	
344.400	39.002	
344.500	28.897	
344.600	46.100	
344.700	40.499	
344.800	38.543	
344.900	36.134	
345.000	44.125	
345.100	36.318	
345.200	39.184	
345.300	46.561	
345.400	43.406	
345.500	38.855	
345.600	34.025	
345.700	51.574	
345.800	43.702	
345.900	40.272	
346.000	42.072	
346.100	35.124	
346.200	25.206	
346.300	41.636	
346.400	32.140	
346.500	37.076	
346.600	64.007	
346.700	46.004	
346.800	31.365	
346.900	27.205	
347.000	44.996	
347.100	43.624	
347.200	39.120	
347.300	43.256	
347.400	35.630	
347.500	31.562	
347.600	48.113	
347.700	45.432	
347.800	34.215	
347.900	53.547	
348.000	37.809	
348.100	23.349	
348.200	41.296	
348.300	49.259	
348.400	42.317	
348.500	40.270	
348.600	29.113	
348.700	47.738	
348.800	29.844	
348.900	44.445	
349.000	41.183	
349.100	35.247	
349.200	28.226	
349.300	55.519	
349.400	38.131	
349.500	42.521	
349.600	42.963	
349.700	44.152	
349.800	34.562	
349.900	44.836	
350.000	37.602	
350.100	34.016	
350.200	38.812	
350.300	42.080	
350.400	40.411	
350.500	28.460	
350.600	39.597	
350.700	37.383	
350.800	52.449	
350.900	48.337	
351.000	33.996	
351.100	30.880	
351.200	49.400	
351.300	41.833	
351.400	42.001	
351.500	48.210	
351.600	48.653	
351.700	40.532	
351.800	24.403	
351.900	35.706	
352.000	45.307	
352.100	42.737	
352.200	44.249	
352.300	40.281	
352.400	29.362	
352.500	47.146	
352.600	38.811	
352.700	35.484	
352.800	36.395	
352.900	57.631	
353.000	41.620	
353.100	34.136	
353.200	39.132	
353.300	37.108	
353.400	37.885	
353.500	35.642	
353.600	49.247	
353.700	26.586	
353.800	51.202	
353.900	47.507	
354.000	35.683	
354.100	33.866	
354.200	51.013	
354.300	45.213	
354.400	47.187	
354.500	37.780	
354.600	45.091	
354.700	35.806	
354.800	31.549	
354.900	40.908	
355.000	39.990	
355.100	41.851	
355.200	29.676	
355.300	45.728	
355.400	47.413	
355.500	41.154	
355.600	37.017	
355.700	54.162	
355.800	16.812	
355.900	54.085	
356.000	49.100	
356.100	34.562	
356.200	31.214	
356.300	49.822	
356.400	41.687	
356.500	44.904	
356.600	34.899	
356.700	32.069	
356.800	43.401	
356.900	45.849	
357.000	27.110	
357.100	47.020	
357.200	51.318	
357.300	44.406	
357.400	35.753	
357.500	37.837	
357.600	20.088	
357.700	51.560	
357.800	39.885	
357.900	24.021	
358.000	51.659	
358.100	31.591	
358.200	44.943	
358.300	43.472	
358.400	20.379	
358.500	36.939	
358.600	44.434	
358.700	35.211	
358.800	40.502	
358.900	34.368	
359.000	43.872	
359.100	34.783	
359.200	31.258	
359.300	31.169	
359.400	35.838	
359.500	41.404	
359.600	37.406	
359.700	18.762	
359.800	39.053	
359.900	45.707	
360.000	45.508	
360.100	30.917	
360.200	35.133	
360.300	28.035	
360.400	35.811	
360.500	33.118	
360.600	37.182	
360.700	32.218	
360.800	33.321	
360.900	43.893	
361.000	37.892	
361.100	48.351	
361.200	37.523	
361.300	39.562	
361.400	38.066	
361.500	23.992	
361.600	44.731	
361.700	18.757	
361.800	41.469	
361.900	41.010	
362.000	49.200	
362.100	38.263	
362.200	43.575	
362.300	52.556	
362.400	38.721	
362.500	36.905	
362.600	41.711	
362.700	38.579	
362.800	42.789	
362.900	36.215	
363.000	45.003	
363.100	50.169	
363.200	29.745	
363.300	36.635	
363.400	41.608	
363.500	35.046	
363.600	32.583	
363.700	47.722	
363.800	43.238	
363.900	42.834	
364.000	34.967	
364.100	39.536	
364.200	33.886	
364.300	25.493	
364.400	44.845	
364.500	22.427	
364.600	33.354	
364.700	33.778	
364.800	53.117	
364.900	22.138	
365.000	32.038	
365.100	20.555	
365.200	44.589	
365.300	40.005	
365.400	37.634	
365.500	35.930	
365.600	24.355	
365.700	25.036	
365.800	26.843	
365.900	29.169	
366.000	45.443	
366.100	37.173	
366.200	27.232	
366.300	25.618	
366.400	34.940	
366.500	23.980	
366.600	30.160	
366.700	49.715	
366.800	39.170	
366.900	45.582	
367.000	29.051	
367.100	32.572	
367.200	25.831	
367.300	44.065	
367.400	58.262	
367.500	32.912	
367.600	33.818	
367.700	29.179	
367.800	40.137	
367.900	41.453	
368.000	33.514	
368.100	36.456	
368.200	32.805	
368.300	28.381	
368.400	40.667	
368.500	42.514	
368.600	26.340	
368.700	36.294	
368.800	23.367	
368.900	33.937	
369.000	23.063	
369.100	42.196	
369.200	31.614	
369.300	43.264	
369.400	22.138	
369.500	37.301	
369.600	47.650	
369.700	33.059	
369.800	43.629	
369.900	30.531	
370.000	29.616	
370.100	39.030	
370.200	39.597	
370.300	19.452	
370.400	44.699	
370.500	40.137	
370.600	48.489	
370.700	28.673	
370.800	38.276	
370.900	34.006	
371.000	32.620	
371.100	39.802	
371.200	37.886	
371.300	30.341	
371.400	36.352	
371.500	25.973	
371.600	37.703	
371.700	25.806	
371.800	24.767	
371.900	38.959	
372.000	45.152	
372.100	44.237	
372.200	18.849	
372.300	48.186	
372.400	28.351	
372.500	32.900	
372.600	38.486	
372.700	38.627	
372.800	32.556	
372.900	22.986	
373.000	34.172	
373.100	35.009	
373.200	35.546	
373.300	40.830	
373.400	35.125	
373.500	37.160	
373.600	19.436	
373.700	38.954	
373.800	33.147	
373.900	43.844	
374.000	39.959	
374.100	36.134	
374.200	31.211	
374.300	36.135	
374.400	41.992	
374.500	35.734	
374.600	30.430	
374.700	33.323	
374.800	33.586	
374.900	23.880	
375.000	29.652	
375.100	55.537	
375.200	29.846	
375.300	51.186	
375.400	28.078	
375.500	31.722	
375.600	40.367	
375.700	20.081	
375.800	27.380	
375.900	36.975	
376.000	34.550	
376.100	39.544	
376.200	33.316	
376.300	35.266	
376.400	37.552	
376.500	38.396	
376.600	43.444	
376.700	33.056	
376.800	36.129	
376.900	29.737	
377.000	31.053	
377.100	33.316	
377.200	31.757	
377.300	39.215	
377.400	39.791	
377.500	24.043	
377.600	35.431	
377.700	40.863	
377.800	37.920	
377.900	30.022	
378.000	40.857	
378.100	32.718	
378.200	24.654	
378.300	44.598	
378.400	42.660	
378.500	30.019	
378.600	29.094	
378.700	42.544	
378.800	34.177	
378.900	34.768	
379.000	36.450	
379.100	24.479	
379.200	44.694	
379.300	41.617	
379.400	26.044	
379.500	40.592	
379.600	21.011	
379.700	39.099	
379.800	36.085	
379.900	27.385	
380.000	29.695	
380.100	37.573	
380.200	17.901	
380.300	41.166	
380.400	25.095	
380.500	33.732	
380.600	28.122	
380.700	44.607	
380.800	25.013	
380.900	32.784	
381.000	38.315	
381.100	30.880	
381.200	35.804	
381.300	38.330	
381.400	36.036	
381.500	18.733	
381.600	38.690	
381.700	32.955	
381.800	42.049	
381.900	35.316	
382.000	41.350	
382.100	13.118	
382.200	33.953	
382.300	22.605	
382.400	28.881	
382.500	33.103	
382.600	36.338	
382.700	48.227	
382.800	41.461	
382.900	39.270	
383.000	33.941	
383.100	30.028	
383.200	32.522	
383.300	46.041	
383.400	26.984	
383.500	40.962	
383.600	42.633	
383.700	36.788	
383.800	37.740	
383.900	28.825	
384.000	37.247	
384.100	26.561	
384.200	19.344	
384.300	46.013	
384.400	17.189	
384.500	30.986	
384.600	37.250	
384.700	44.147	
384.800	40.565	
384.900	37.337	
385.000	30.986	
385.100	30.134	
385.200	40.561	
385.300	42.080	
385.400	29.890	
385.500	38.185	
385.600	14.385	
385.700	24.279	
385.800	41.074	
385.900	29.521	
386.000	42.860	
386.100	31.233	
386.200	32.760	
386.300	32.721	
386.400	26.127	
386.500	43.220	
386.600	32.202	
386.700	38.746	
386.800	30.663	
386.900	33.457	
387.000	27.244	
387.100	15.729	
387.200	38.242	
387.300	28.988	
387.400	23.816	
387.500	37.268	
387.600	40.152	
387.700	30.499	
387.800	33.519	
387.900	39.619	
388.000	30.455	
388.100	42.374	
388.200	36.642	
388.300	34.971	
388.400	24.262	
388.500	18.075	
388.600	35.806	
388.700	37.003	
388.800	25.362	
388.900	44.534	
389.000	24.258	
389.100	34.464	
389.200	39.955	
389.300	30.124	
389.400	19.152	
389.500	42.776	
389.600	34.545	
389.700	34.417	
389.800	34.748	
389.900	25.194	
390.000	39.460	
390.100	34.917	
390.200	31.271	
390.300	20.464	
390.400	13.852	
390.500	6.523	
390.600	18.667	
390.700	4.693	
390.800	20.089	
390.900	19.043	
391.000	9.641	
391.100	9.042	
391.200	4.465	
391.300	-2.519	
391.400	13.272	
391.500	2.302	
391.600	12.734	
391.700	-4.005	
391.800	7.150	
391.900	-10.427	
392.000	-0.790	
392.100	-8.352	
392.200	-9.381	
392.300	-4.884	
392.400	-11.045	
392.500	-6.255	
392.600	1.438	
392.700	-4.457	
392.800	-2.471	
392.900	-26.607	
393.000	-2.728	
393.100	3.797	
393.200	1.813	
393.300	-19.378	
393.400	-10.973	
393.500	-14.484	
393.600	-9.184	
393.700	-10.039	
393.800	-17.736	
393.900	-14.487	
394.000	-16.287	
394.100	-19.114	
394.200	-5.864	
394.300	-27.320	
394.400	-5.380	
394.500	-14.700	
394.600	-8.555	
394.700	-18.517	
394.800	-5.751	
394.900	-14.531	
395.000	-15.300	
395.100	-10.302	
395.200	-30.679	
395.300	-16.251	
395.400	-6.028	
395.500	-19.112	
395.600	-10.440	
395.700	-13.606	
395.800	-11.086	
395.900	-14.231	
396.000	-4.242	
396.100	-13.997	
396.200	-5.551	
396.300	-6.980	
396.400	-16.815	
396.500	-11.886	
396.600	-8.904	
396.700	1.125	
396.800	-13.967	
396.900	-12.841	
397.000	-10.713	
397.100	-3.959	
397.200	-16.250	
397.300	-12.520	
397.400	-17.684	
397.500	-16.861	
397.600	-11.348	
397.700	4.805	
397.800	-12.505	
397.900	-4.793	
398.000	-11.636	
398.100	-15.459	
398.200	-22.837	
398.300	-3.121	
398.400	-22.500	
398.500	-7.519	
398.600	-4.624	
398.700	-9.700	
398.800	-5.488	
398.900	-12.796	
399.000	-6.209	
399.100	-21.356	
399.200	-11.417	
399.300	-11.095	
399.400	-6.955	
399.500	-8.743	
399.600	-22.398	
399.700	-3.927	
399.800	-7.780	
399.900	-2.487	
400.000	-18.774	
400.100	-18.224	
400.200	1.399	
400.300	-1.830	
400.400	-25.113	
400.500	-11.277	
400.600	-6.859	
400.700	-8.274	
400.800	-0.441	
400.900	-29.905	
401.000	-6.695	
401.100	-11.015	
401.200	-0.953	
401.300	-10.047	
401.400	-22.385	
401.500	2.746	
401.600	-20.083	
401.700	3.759	
401.800	-26.758	
401.900	-2.929	
402.000	-11.581	
402.100	-18.403	
402.200	-13.751	
402.300	-24.704	
402.400	-18.847	
402.500	-6.872	
402.600	-7.909	
402.700	-5.117	
402.800	-16.095	
402.900	-7.323	
403.000	9.257	
403.100	-13.399	
403.200	-15.383	
403.300	-17.982	
403.400	2.116	
403.500	-11.715	
403.600	-17.259	
403.700	-5.646	
403.800	-34.318	
403.900	-18.627	
404.000	-3.949	
404.100	-15.825	
404.200	-1.194	
404.300	-9.644	
404.400	-10.643	
404.500	-18.871	
404.600	-4.873	
404.700	-1.474	
404.800	-4.643	
404.900	-25.825	
405.000	-14.318	
405.100	-8.062	
405.200	-9.866	
405.300	-24.485	
405.400	-5.155	
405.500	-3.822	
405.600	-23.148	
405.700	5.704	
405.800	-3.002	
405.900	-19.969	
406.000	-10.796	
406.100	-10.949	
406.200	12.828	
406.300	-18.222	
406.400	-3.429	
406.500	-10.444	
406.600	-14.252	
406.700	9.467	
406.800	-7.921	
406.900	-26.407	
407.000	-22.547	
407.100	-11.441	
407.200	-12.824	
407.300	-14.787	
407.400	-10.183	
407.500	-30.814	
407.600	1.561	
407.700	-11.496	
407.800	-10.399	
407.900	-12.074	
408.000	-16.556	
408.100	-18.674	
408.200	-12.456	
408.300	2.942	
408.400	-7.411	
408.500	-11.712	
408.600	-26.459	
408.700	-14.968	
408.800	6.301	
408.900	-3.810	
409.000	-22.184	
409.100	0.925	
409.200	-9.970	
409.300	-10.448	
409.400	-4.861	
409.500	-8.942	
409.600	-4.703	
409.700	-9.437	
409.800	-9.072	
409.900	-9.475	
410.000	-9.418	
410.100	-2.149	
410.200	-15.904	
410.300	-13.610	
410.400	2.190	
410.500	-19.223	
410.600	-11.213	
410.700	-4.526	
410.800	-11.399	
410.900	-6.624	
411.000	-25.958	
411.100	-7.477	
411.200	2.308	
411.300	-17.325	
411.400	-3.054	
411.500	-13.291	
411.600	-14.600	
411.700	-10.078	
411.800	-9.647	
411.900	-22.854	
412.000	-21.401	
412.100	-10.660	
412.200	-1.814	
412.300	-31.538	
412.400	-8.902	
412.500	-11.750	
412.600	-4.910	
412.700	-8.060	
412.800	-0.995	
412.900	-11.641	
413.000	-10.605	
413.100	-6.022	
413.200	-18.119	
413.300	-11.286	
413.400	-27.083	
413.500	-18.245	
413.600	11.321	
413.700	-12.516	
413.800	-6.230	
413.900	-30.793	
414.000	-7.615	
414.100	-23.114	
414.200	-34.565	
414.300	1.595	
414.400	0.834	
414.500	-10.117	
414.600	-17.881	
414.700	-12.379	
414.800	-16.614	
414.900	-5.189	
415.000	-19.764	
415.100	-11.519	
415.200	-16.943	
415.300	-16.721	
415.400	-22.297	
415.500	-16.792	
415.600	-2.222	
415.700	-26.229	
415.800	-15.618	
415.900	-9.715	
416.000	-20.237	
416.100	-8.264	
416.200	-10.188	
416.300	-0.763	
416.400	4.424	
416.500	-7.537	
416.600	-12.908	
416.700	-8.154	
416.800	-14.927	
416.900	-12.541	
417.000	-28.131	
417.100	-8.748	
417.200	-12.385	
417.300	-13.764	
417.400	-6.236	
417.500	-11.291	
417.600	-14.940	
417.700	-18.786	
417.800	-16.929	
417.900	-7.291	
418.000	-11.926	
418.100	-17.433	
418.200	-19.793	
418.300	-22.764	
418.400	-14.399	
418.500	-12.373	
418.600	-16.669	
418.700	-15.714	
418.800	-16.677	
418.900	-15.673	
419.000	-21.854	
419.100	-8.083	
419.200	-17.563	
419.300	8.123	
419.400	-18.201	
419.500	-14.876	
419.600	-5.786	
419.700	-18.531	
419.800	-13.775	
419.900	-22.757	
420.000	-8.354	
420.100	-8.038	
420.200	-11.397	
420.300	-1.264	
420.400	-10.614	
420.500	-19.593	
420.600	-15.733	
420.700	-13.543	
420.800	-8.159	
420.900	-25.311	
421.000	-9.992	
421.100	-8.214	
421.200	-8.378	
421.300	-1.843	
421.400	-13.018	
421.500	-26.422	
421.600	-14.244	
421.700	-16.123	
421.800	-12.153	
421.900	-9.016	
422.000	-22.303	
422.100	-9.222	
422.200	-13.702	
422.300	2.425	
422.400	-8.052	
422.500	-17.787	
422.600	-9.793	
422.700	-9.359	
422.800	-3.910	
422.900	-22.642	
423.000	-9.035	
423.100	-19.541	
423.200	-8.575	
423.300	-21.161	
423.400	-15.978	
423.500	-9.989	
423.600	-6.706	
423.700	-16.552	
423.800	-13.272	
423.900	-24.190	
424.000	-10.208	
424.100	-8.936	
424.200	-16.434	
424.300	-19.016	
424.400	-18.154	
424.500	-10.993	
424.600	-22.998	
424.700	-13.155	
424.800	-21.194	
424.900	-15.617	
425.000	-26.022	
425.100	-23.613	
425.200	0.538	
425.300	-6.593	
425.400	-3.683	
425.500	-12.232	
425.600	-14.200	
425.700	-15.447	
425.800	-21.057	
425.900	-21.912	
426.000	-14.596	
426.100	-22.910	
426.200	-12.714	
426.300	-10.575	
426.400	-12.981	
426.500	-13.540	
426.600	5.981	
426.700	-14.158	
426.800	-6.493	
426.900	-11.042	
427.000	-11.936	
427.100	-26.641	
427.200	-11.216	
427.300	-27.311	
427.400	-6.590	
427.500	-12.319	
427.600	-5.936	
427.700	-10.567	
427.800	-10.911	
427.900	-0.374	
428.000	-14.789	
428.100	-12.087	
428.200	-7.003	
428.300	-6.940	
428.400	-15.057	
428.500	5.148	
428.600	-25.228	
428.700	-10.713	
428.800	-23.706	
428.900	-18.327	
429.000	-13.637	
429.100	-7.695	
429.200	-18.335	
429.300	-12.359	
429.400	-7.410	
429.500	-15.611	
429.600	-7.259	
429.700	-3.311	
429.800	-17.474	
429.900	-21.391	
430.000	-10.109	
430.100	-30.436	
430.200	-18.838	
430.300	-11.278	
430.400	-5.006	
430.500	-12.044	
430.600	-16.355	
430.700	-21.905	
430.800	-2.289	
430.900	-11.252	
431.000	-5.673	
431.100	-12.170	
431.200	-5.410	
431.300	-15.712	
431.400	-8.805	
431.500	-15.350	
431.600	-21.595	
431.700	-15.080	
431.800	-13.022	
431.900	-12.720	
432.000	-5.698	
432.100	-6.288	
432.200	-14.880	
432.300	-11.786	
432.400	-12.489	
432.500	-11.376	
432.600	-3.321	
432.700	-2.716	
432.800	-16.887	
432.900	-14.861	
433.000	-15.409	
433.100	-17.785	
433.200	-15.808	
433.300	-13.998	
433.400	-3.987	
433.500	-15.776	
433.600	-4.859	
433.700	-4.409	
433.800	-16.036	
433.900	-20.085	
434.000	-1.768	
434.100	-18.907	
434.200	-19.439	
434.300	-2.728	
434.400	-37.371	
434.500	1.528	
434.600	-13.623	
434.700	-14.327	
434.800	-9.458	
434.900	-9.148	
435.000	-19.879	
435.100	-13.310	
435.200	-3.556	
435.300	1.319	
435.400	-16.919	
435.500	-21.460	
435.600	-3.027	
435.700	-20.683	
435.800	-11.613	
435.900	-12.546	
436.000	-17.956	
436.100	13.945	
436.200	-28.863	
436.300	-0.076	
436.400	-19.797	
436.500	-29.018	
436.600	-11.439	
436.700	-13.490	
436.800	-2.000	
436.900	-6.931	
437.000	-15.437	
437.100	-16.520	
437.200	-0.332	
437.300	-7.427	
437.400	-2.065	
437.500	-6.319	
437.600	-6.543	
437.700	-14.913	
437.800	-11.600	
437.900	-11.543	
438.000	-28.523	
438.100	-9.429	
438.200	-3.869	
438.300	-15.054	
438.400	-3.365	
438.500	-7.691	
438.600	-13.796	
438.700	-18.906	
438.800	-8.636	
438.900	-4.420	
439.000	-12.328	
439.100	-8.031	
439.200	-13.488	
439.300	-16.127	
439.400	-12.915	
439.500	-7.708	
439.600	-2.581	
439.700	-8.618	
439.800	-13.620	
439.900	-17.815	
440.000	-15.456	
440.100	0.118	
440.200	-15.348	
440.300	-5.523	
440.400	-7.521	
440.500	-17.921	
440.600	-4.627	
440.700	-6.821	
440.800	-15.204	
440.900	-20.159	
441.000	-22.846	
441.100	-10.905	
441.200	-8.450	
441.300	-16.654	
441.400	-18.347	
441.500	-11.541	
441.600	-8.472	
441.700	-14.755	
441.800	0.045	
441.900	-5.963	
442.000	-10.332	
442.100	-7.667	
442.200	-4.191	
442.300	-6.036	
442.400	-5.019	
442.500	-2.785	
442.600	-2.506	
442.700	-16.335	
442.800	-3.340	
442.900	-13.500	
443.000	-14.811	
443.100	1.962	
443.200	-2.769	
443.300	-9.102	
443.400	-10.533	
443.500	-19.097	
443.600	-7.644	
443.700	-19.247	
443.800	-20.341	
443.900	-4.389	
444.000	-3.861	
444.100	-16.935	
444.200	-16.593	
444.300	-8.118	
444.400	-10.549	
444.500	-7.496	
444.600	-3.372	
444.700	-6.020	
444.800	-9.806	
444.900	-4.687	
445.000	-10.275	
445.100	-15.196	
445.200	-1.831	
445.300	-8.660	
445.400	-23.871	
445.500	-8.718	
445.600	-3.977	
445.700	-21.316	
445.800	-4.313	
445.900	-16.363	
446.000	7.437	
446.100	-20.214	
446.200	-14.608	
446.300	-1.665	
446.400	-18.532	
446.500	-8.554	
446.600	-8.623	
446.700	-25.176	
446.800	4.454	
446.900	4.224	
447.000	-15.406	
447.100	-16.455	
447.200	-18.029	
447.300	-15.322	
447.400	-3.218	
447.500	-8.802	
447.600	-34.900	
447.700	3.309	
447.800	-9.180	
447.900	-16.849	
448.000	-17.106	
448.100	-4.542	
448.200	-14.883	
448.300	0.797	
448.400	-5.018	
448.500	-9.009	
448.600	-22.584	
448.700	-16.016	
448.800	-8.608	
448.900	-7.927	
449.000	-11.949	
449.100	-2.526	
449.200	-20.692	
449.300	-9.546	
449.400	-9.147	
449.500	-16.988	
449.600	-0.875	
449.700	-7.387	
449.800	-18.317	
449.900	-4.489	
450.000	-7.021	
450.100	-7.228	
450.200	-22.148	
450.300	-6.249	
450.400	10.215	
450.500	-15.299	
450.600	-13.362	
450.700	-8.096	
450.800	-15.470	
450.900	-8.464	
451.000	-2.886	
451.100	1.071	
451.200	-23.376	
451.300	-0.684	
451.400	-28.757	
451.500	-5.455	
451.600	-15.202	
451.700	-6.858	
451.800	-23.099	
451.900	-1.491	
452.000	-10.482	
452.100	-6.045	
452.200	-18.741	
452.300	-21.916	
452.400	1.869	
452.500	-7.395	
452.600	-17.841	
452.700	-12.364	
452.800	-13.945	
452.900	-15.379	
453.000	-6.217	
453.100	-21.634	
453.200	-10.045	
453.300	-5.553	
453.400	-5.799	
453.500	-10.720	
453.600	-16.244	
453.700	-4.775	
453.800	-6.097	
453.900	-15.476	
454.000	-21.195	
454.100	-3.313	
454.200	-14.693	
454.300	-17.691	
454.400	-15.400	
454.500	13.323	
454.600	-0.180	
454.700	-9.627	
454.800	-12.827	
454.900	-13.002	
455.000	-8.828	
455.100	-16.124	
455.200	-18.783	
455.300	-11.466	
455.400	-25.496	
455.500	-10.306	
455.600	-6.623	
455.700	-14.453	
455.800	-14.247	
455.900	-13.169	
456.000	18.806	
456.100	-30.495	
456.200	6.407	
456.300	-5.749	
456.400	-8.872	
456.500	-4.394	
456.600	6.937	
456.700	-15.616	
456.800	-27.868	
456.900	-10.637	
457.000	-12.508	
457.100	-15.883	
457.200	-5.474	
457.300	-10.952	
457.400	-16.243	
457.500	8.946	
457.600	-9.223	
457.700	-16.925	
457.800	0.639	
457.900	-7.823	
458.000	-5.999	
458.100	11.764	
458.200	-1.904	
458.300	-5.988	
458.400	8.424	
458.500	-8.683	
458.600	-16.448	
458.700	-9.024	
458.800	-26.134	
458.900	-8.920	
459.000	-19.525	
459.100	-5.041	
459.200	-5.935	
459.300	-18.754	
459.400	0.269	
459.500	-10.349	
459.600	-11.927	
459.700	-9.551	
459.800	-21.075	
459.900	-37.821	
460.000	0.827	
460.100	1.112	
460.200	-11.634	
460.300	-22.343	
460.400	-13.784	
460.500	-0.731	
460.600	-4.724	
460.700	-14.751	
460.800	-7.123	
460.900	-7.465	
461.000	-15.147	
461.100	-12.668	
461.200	-10.878	
461.300	1.224	
461.400	-11.682	
461.500	-6.095	
461.600	-1.953	
461.700	-12.533	
461.800	-23.475	
461.900	-1.787	
462.000	-10.861	
462.100	-19.089	
462.200	-13.899	
462.300	-18.076	
462.400	-3.411	
462.500	0.681	
462.600	-12.669	
462.700	-13.347	
462.800	-5.118	
462.900	-14.214	
463.000	-12.971	
463.100	-5.775	
463.200	-12.602	
463.300	3.675	
463.400	-2.611	
463.500	-5.914	
463.600	-4.044	
463.700	2.143	
463.800	-8.295	
463.900	-12.369	
464.000	5.326	
464.100	-3.941	
464.200	-21.916	
464.300	-5.003	
464.400	-7.584	
464.500	-13.045	
464.600	-16.848	
464.700	-17.224	
464.800	-20.581	
464.900	-7.149	
465.000	3.893	
465.100	-7.212	
465.200	-6.657	
465.300	0.198	
465.400	-14.081	
465.500	-26.521	
465.600	8.937	
465.700	-0.884	
465.800	0.935	
465.900	-9.479	
466.000	-17.808	
466.100	-9.404	
466.200	-18.381	
466.300	-9.317	
466.400	1.789	
466.500	-15.058	
466.600	-8.598	
466.700	-13.419	
466.800	-17.865	
466.900	-1.362	
467.000	-5.720	
467.100	-8.068	
467.200	-9.079	
467.300	-12.793	
467.400	-4.262	
467.500	3.349	
467.600	-16.300	
467.700	4.676	
467.800	-5.679	
467.900	9.093	
468.000	-16.220	
468.100	-23.429	
468.200	-2.671	
468.300	-8.282	
468.400	-23.894	
468.500	-15.528	
468.600	6.484	
468.700	-18.486	
468.800	7.030	
468.900	-13.100	
469.000	-6.284	
469.100	-16.679	
469.200	-0.751	
469.300	-4.805	
469.400	-11.310	
469.500	-19.244	
469.600	4.857	
469.700	-17.340	
469.800	-11.058	
469.900	1.446	
470.000	-8.376	
470.100	-7.765	
470.200	-7.901	
470.300	-8.139	
470.400	-20.435	
470.500	-8.980	
470.600	3.342	
470.700	-0.226	
470.800	-10.469	
470.900	-2.819	
471.000	-13.355	
471.100	-2.623	
471.200	0.351	
471.300	-10.128	
471.400	-10.162	
471.500	-12.618	
471.600	-15.709	
471.700	-4.558	
471.800	-19.694	
471.900	8.363	
472.000	-16.514	
472.100	-20.825	
472.200	3.651	
472.300	-8.530	
472.400	-8.965	
472.500	-2.373	
472.600	-4.013	
472.700	-4.832	
472.800	2.001	
472.900	-4.204	
473.000	-17.662	
473.100	7.107	
473.200	-9.154	
473.300	-4.589	
473.400	4.193	
473.500	-5.938	
473.600	-6.338	
473.700	6.828	
473.800	-3.111	
473.900	-18.142	
474.000	-12.949	
474.100	-8.617	
474.200	4.063	
474.300	-13.493	
474.400	-16.955	
474.500	-3.107	
474.600	5.654	
474.700	-6.478	
474.800	-8.751	
474.900	-20.139	
475.000	7.065	
475.100	-10.343	
475.200	-9.015	
475.300	-4.210	
475.400	-6.438	
475.500	-8.534	
475.600	-17.854	
475.700	-13.562	
475.800	2.126	
475.900	9.967	
476.000	-2.604	
476.100	-0.281	
476.200	-6.810	
476.300	-8.982	
476.400	-21.358	
476.500	-1.033	
476.600	-11.301	
476.700	-3.705	
476.800	1.602	
476.900	-18.861	
477.000	-3.965	
477.100	-16.617	
477.200	-8.249	
477.300	-8.591	
477.400	-0.387	
477.500	-7.539	
477.600	4.838	
477.700	-7.072	
477.800	-22.607	
477.900	8.328	
478.000	-7.502	
478.100	-7.604	
478.200	-18.441	
478.300	-14.902	
478.400	-5.034	
478.500	3.930	
478.600	-2.520	
478.700	-7.300	
478.800	-13.225	
478.900	3.682	
479.000	-2.759	
479.100	-14.107	
479.200	-11.212	
479.300	-2.277	
479.400	-7.428	
479.500	1.130	
479.600	-2.233	
479.700	-14.787	
479.800	11.950	
479.900	-13.068	
480.000	-2.020	
480.100	-3.769	
480.200	-1.576	
480.300	5.974	
480.400	10.999	
480.500	4.191	
480.600	5.043	
480.700	17.751	
480.800	24.616	
480.900	6.514	
481.000	11.307	
481.100	25.318	
481.200	23.318	
481.300	14.332	
481.400	15.115	
481.500	24.984	
481.600	20.849	
481.700	14.598	
481.800	21.477	
481.900	36.948	
482.000	16.407	
482.100	23.839	
482.200	29.837	
482.300	26.436	
482.400	26.484	
482.500	22.125	
482.600	28.201	
482.700	30.967	
482.800	14.612	
482.900	23.459	
483.000	32.608	
483.100	14.399	
483.200	8.854	
483.300	38.758	
483.400	26.237	
483.500	13.859	
483.600	12.817	
483.700	13.373	
483.800	19.264	
483.900	17.584	
484.000	21.760	
484.100	24.057	
484.200	10.001	
484.300	21.262	
484.400	12.885	
484.500	19.345	
484.600	17.307	
484.700	13.875	
484.800	22.331	
484.900	32.924	
485.000	11.946	
485.100	14.428	
485.200	19.528	
485.300	30.445	
485.400	18.826	
485.500	16.487	
485.600	25.174	
485.700	15.807	
485.800	20.506	
485.900	3.190	
486.000	17.999	
486.100	31.426	
486.200	11.979	
486.300	11.210	
486.400	25.423	
486.500	13.013	
486.600	2.165	
486.700	6.265	
486.800	20.540	
486.900	33.641	
487.000	19.444	
487.100	21.393	
487.200	16.974	
487.300	24.170	
487.400	19.959	
487.500	22.202	
487.600	7.968	
487.700	28.653	
487.800	13.283	
487.900	15.939	
488.000	22.762	
488.100	28.162	
488.200	29.210	
488.300	15.852	
488.400	28.716	
488.500	22.612	
488.600	27.688	
488.700	15.802	
488.800	30.615	
488.900	21.969	
489.000	10.096	
489.100	25.789	
489.200	13.940	
489.300	19.231	
489.400	32.153	
489.500	36.186	
489.600	36.458	
489.700	18.044	
489.800	27.311	
489.900	38.180	
490.000	22.422	
490.100	27.231	
490.200	34.895	
490.300	32.153	
490.400	36.682	
490.500	18.762	
490.600	40.481	
490.700	28.772	
490.800	25.178	
490.900	27.191	
491.000	40.775	
491.100	26.166	
491.200	10.412	
491.300	32.742	
491.400	38.135	
491.500	42.022	
491.600	23.341	
491.700	35.484	
491.800	32.546	
491.900	43.219	
492.000	31.582	
492.100	36.565	
492.200	31.530	
492.300	29.148	
492.400	44.855	
492.500	24.489	
492.600	36.991	
492.700	38.115	
492.800	35.297	
492.900	31.146	
493.000	29.670	
493.100	43.099	
493.200	25.406	
493.300	37.215	
493.400	24.752	
493.500	31.887	
493.600	34.713	
493.700	35.479	
493.800	39.351	
493.900	36.386	
494.000	37.496	
494.100	36.886	
494.200	34.660	
494.300	48.931	
494.400	46.831	
494.500	38.850	
494.600	46.078	
494.700	44.305	
494.800	42.696	
494.900	24.881	
495.000	48.312	
495.100	40.550	
495.200	38.477	
495.300	27.166	
495.400	42.502	
495.500	48.031	
495.600	36.863	
495.700	46.491	
495.800	36.283	
495.900	29.846	
496.000	43.989	
496.100	51.648	
496.200	28.212	
496.300	52.470	
496.400	24.663	
496.500	40.475	
496.600	41.359	
496.700	31.453	
496.800	47.153	
496.900	38.506	
497.000	26.227	
497.100	34.428	
497.200	50.456	
497.300	18.122	
497.400	47.300	
497.500	43.550	
497.600	30.494	
497.700	43.660	
497.800	34.276	
497.900	36.680	
498.000	45.182	
498.100	51.364	
498.200	39.588	
498.300	52.209	
498.400	40.566	
498.500	51.439	
498.600	49.106	
498.700	47.567	
498.800	41.133	
498.900	37.156	
499.000	44.156	
499.100	32.472	
499.200	45.346	
499.300	53.797	
499.400	26.302	
499.500	46.748	
499.600	41.193	
499.700	55.530	
499.800	42.036	
499.900	47.539	
500.000	45.971	
500.100	40.198	
500.200	36.151	
500.300	42.963	
500.400	37.366	
500.500	34.489	
500.600	38.275	
500.700	52.399	
500.800	42.226	
500.900	43.906	
501.000	44.880	
501.100	35.966	
501.200	39.780	
501.300	46.430	
501.400	42.589	
501.500	50.623	
501.600	36.602	
501.700	42.393	
501.800	44.648	
501.900	51.514	
502.000	41.675	
502.100	24.626	
502.200	52.029	
502.300	28.856	
502.400	39.602	
502.500	60.078	
502.600	30.124	
502.700	40.587	
502.800	37.575	
502.900	48.124	
503.000	36.062	
503.100	39.591	
503.200	38.047	
503.300	39.576	
503.400	47.812	
503.500	32.333	
503.600	36.096	
503.700	46.314	
503.800	43.481	
503.900	31.562	
504.000	51.398	
504.100	44.369	
504.200	29.982	
504.300	34.541	
504.400	33.148	
504.500	50.194	
504.600	40.932	
504.700	45.041	
504.800	39.899	
504.900	33.700	
505.000	36.118	
505.100	43.069	
505.200	36.341	
505.300	41.406	
505.400	35.727	
505.500	30.857	
505.600	41.456	
505.700	43.724	
505.800	36.356	
505.900	40.861	
506.000	46.902	
506.100	40.455	
506.200	33.274	
506.300	46.020	
506.400	47.030	
506.500	36.057	
506.600	40.625	
506.700	45.477	
506.800	45.560	
506.900	38.713	
507.000	38.679	
507.100	40.855	
507.200	30.062	
507.300	31.902	
507.400	46.945	
507.500	37.680	
507.600	35.350	
507.700	37.663	
507.800	43.083	
507.900	43.214	
508.000	17.608	
508.100	44.766	
508.200	40.198	
508.300	44.053	
508.400	35.705	
508.500	35.104	
508.600	35.818	
508.700	40.764	
508.800	22.114	
508.900	44.398	
509.000	30.688	
509.100	43.227	
509.200	31.870	
509.300	47.162	
509.400	49.547	
509.500	39.428	
509.600	23.167	
509.700	39.587	
509.800	51.055	
509.900	29.394	
510.000	40.812	
510.100	32.648	
510.200	34.520	
510.300	49.192	
510.400	29.360	
510.500	36.861	
510.600	38.297	
510.700	38.731	
510.800	53.175	
510.900	18.010	
511.000	41.607	
511.100	43.949	
511.200	37.930	
511.300	47.744	
511.400	36.325	
511.500	31.495	
511.600	36.220	
511.700	35.649	
511.800	21.967	
511.900	37.834	
512.000	32.065	
512.100	36.330	
512.200	29.154	
512.300	47.335	
512.400	43.862	
512.500	36.741	
512.600	45.165	
512.700	33.513	
512.800	49.274	
512.900	27.577	
513.000	42.154	
513.100	44.430	
513.200	36.291	
513.300	42.774	
513.400	29.330	
513.500	48.616	
513.600	36.690	
513.700	34.098	
513.800	45.802	
513.900	37.619	
514.000	30.438	
514.100	21.042	
514.200	45.756	
514.300	49.498	
514.400	34.002	
514.500	48.456	
514.600	30.154	
514.700	31.698	
514.800	34.568	
514.900	20.349	
515.000	40.933	
515.100	33.960	
515.200	44.955	
515.300	35.953	
515.400	39.010	
515.500	33.172	
515.600	38.953	
515.700	31.597	
515.800	47.481	
515.900	40.528	
516.000	35.189	
516.100	32.389	
516.200	32.501	
516.300	12.566	
516.400	41.312	
516.500	43.901	
516.600	30.229	
516.700	37.457	
516.800	49.837	
516.900	16.754	
517.000	39.043	
517.100	39.352	
517.200	42.990	
517.300	32.493	
517.400	31.039	
517.500	33.279	
517.600	27.760	
517.700	50.553	
517.800	35.120	
517.900	35.744	
518.000	35.826	
518.100	27.463	
518.200	52.144	
518.300	32.461	
518.400	32.299	
518.500	40.306	
518.600	28.990	
518.700	54.514	
518.800	39.046	
518.900	31.717	
519.000	31.104	
519.100	43.875	
519.200	29.816	
519.300	30.698	
519.400	48.667	
519.500	37.779	
519.600	34.296	
519.700	38.623	
519.800	48.275	
519.900	30.000	
520.000	39.375	
520.100	43.152	
520.200	31.749	
520.300	32.069	
520.400	30.358	
520.500	26.811	
520.600	44.990	
520.700	33.975	
520.800	32.844	
520.900	31.065	
521.000	45.428	
521.100	38.313	
521.200	25.554	
521.300	33.088	
521.400	36.785	
521.500	37.551	
521.600	38.363	
521.700	44.395	
521.800	31.610	
521.900	28.575	
522.000	44.738	
522.100	25.635	
522.200	31.756	
522.300	30.615	
522.400	39.093	
522.500	24.728	
522.600	53.731	
522.700	32.721	
522.800	41.423	
522.900	31.207	
523.000	52.864	
523.100	22.717	
523.200	36.754	
523.300	41.842	
523.400	16.978	
523.500	38.944	
523.600	41.834	
523.700	38.601	
523.800	37.830	
523.900	44.655	
524.000	31.598	
524.100	42.257	
524.200	39.126	
524.300	45.309	
524.400	27.202	
524.500	48.247	
524.600	35.619	
524.700	39.586	
524.800	22.354	
524.900	41.935	
525.000	12.890	
525.100	47.214	
525.200	44.314	
525.300	38.205	
525.400	32.691	
525.500	41.736	
525.600	40.749	
525.700	41.198	
525.800	21.162	
525.900	29.695	
526.000	19.179	
526.100	37.958	
526.200	41.173	
526.300	24.214	
526.400	35.336	
526.500	41.604	
526.600	21.980	
526.700	44.817	
526.800	34.264	
526.900	21.235	
527.000	34.881	
527.100	41.809	
527.200	45.852	
527.300	33.200	
527.400	24.037	
527.500	28.672	
527.600	34.244	
527.700	36.932	
527.800	40.820	
527.900	27.699	
528.000	43.092	
528.100	47.657	
528.200	31.810	
528.300	25.564	
528.400	41.532	
528.500	31.159	
528.600	41.104	
528.700	16.216	
528.800	32.275	
528.900	33.791	
529.000	44.711	
529.100	30.558	
529.200	43.341	
529.300	40.210	
529.400	16.967	
529.500	43.950	
529.600	29.945	
529.700	41.200	
529.800	36.992	
529.900	38.112	
530.000	46.771	
530.100	31.145	
530.200	34.421	
530.300	27.634	
530.400	34.514	
530.500	39.300	
530.600	29.733	
530.700	25.700	
530.800	39.380	
530.900	23.126	
531.000	30.968	
531.100	37.754	
531.200	55.025	
531.300	15.958	
531.400	43.213	
531.500	23.300	
531.600	29.888	
531.700	36.587	
531.800	42.192	
531.900	38.686	
532.000	30.446	
532.100	36.996	
532.200	42.907	
532.300	30.292	
532.400	35.812	
532.500	33.616	
532.600	34.382	
532.700	35.238	
532.800	36.622	
532.900	31.939	
533.000	31.022	
533.100	26.394	
533.200	36.087	
533.300	35.337	
533.400	31.977	
533.500	37.697	
533.600	29.675	
533.700	33.482	
533.800	21.911	
533.900	34.830	
534.000	42.447	
534.100	46.817	
534.200	20.599	
534.300	43.152	
534.400	10.767	
534.500	34.357	
534.600	40.761	
534.700	22.015	
534.800	33.778	
534.900	45.783	
535.000	49.185	
535.100	13.165	
535.200	42.694	
535.300	38.098	
535.400	34.020	
535.500	34.925	
535.600	44.724	
535.700	35.146	
535.800	28.423	
535.900	26.663	
536.000	33.574	
536.100	29.451	
536.200	32.603	
536.300	37.809	
536.400	30.342	
536.500	28.580	
536.600	32.766	
536.700	19.986	
536.800	41.076	
536.900	34.812	
537.000	34.513	
537.100	32.493	
537.200	29.957	
537.300	32.410	
537.400	26.084	
537.500	53.812	
537.600	44.969	
537.700	28.864	
537.800	29.181	
537.900	31.855	
538.000	29.334	
538.100	33.705	
538.200	30.975	
538.300	36.573	
538.400	7.340	
538.500	41.074	
538.600	42.656	
538.700	26.028	
538.800	36.553	
538.900	30.002	
539.000	33.234	
539.100	38.029	
539.200	33.981	
539.300	25.651	
539.400	33.514	
539.500	33.476	
539.600	31.755	
539.700	35.240	
539.800	37.725	
539.900	40.144	
540.000	40.371	
540.100	23.661	
540.200	49.722	
540.300	24.007	
540.400	26.285	
540.500	26.131	
540.600	24.620	
540.700	15.793	
540.800	20.459	
540.900	13.582	
541.000	18.534	
541.100	-6.082	
541.200	11.163	
541.300	17.790	
541.400	0.587	
541.500	14.715	
541.600	6.457	
541.700	-0.451	
541.800	-1.277	
541.900	-0.697	
542.000	-7.603	
542.100	8.933	
542.200	-7.295	
542.300	-11.403	
542.400	1.129	
542.500	-10.814	
542.600	-8.313	
542.700	-1.680	
542.800	-22.422	
542.900	-13.975	
543.000	-13.444	
543.100	9.129	
543.200	-10.392	
543.300	-13.847	
543.400	-10.083	
543.500	-8.896	
543.600	-16.257	
543.700	-9.643	
543.800	-20.862	
543.900	-15.407	
544.000	7.836	
544.100	-12.960	
544.200	-22.866	
544.300	-15.231	
544.400	-27.724	
544.500	-11.950	
544.600	-24.638	
544.700	-9.807	
544.800	-6.253	
544.900	-10.366	
545.000	-15.090	
545.100	-10.055	
545.200	-21.428	
545.300	4.816	
545.400	-12.259	
545.500	-15.090	
545.600	-7.083	
545.700	-14.540	
545.800	-5.064	
545.900	-16.099	
546.000	-14.931	
546.100	-12.006	
546.200	-17.283	
546.300	-18.275	
546.400	-1.463	
546.500	-20.519	
546.600	-9.736	
546.700	-24.560	
546.800	-3.200	
546.900	-7.527	
547.000	3.834	
547.100	-17.799	
547.200	-11.354	
547.300	-13.073	
547.400	-16.193	
547.500	-16.439	
547.600	-6.435	
547.700	-17.016	
547.800	7.194	
547.900	-10.967	
548.000	-26.495	
548.100	2.252	
548.200	0.330	
548.300	-17.073	
548.400	-8.901	
548.500	10.162	
548.600	-10.827	
548.700	-9.877	
548.800	-16.025	
548.900	-23.582	
549.000	-9.217	
549.100	-21.983	
549.200	-0.899	
549.300	-3.849	
549.400	-4.536	
549.500	8.161	
549.600	-9.139	
549.700	-9.250	
549.800	13.799	
549.900	-13.390	
550.000	-8.149	
550.100	-27.540	
550.200	0.274	
550.300	-10.099	
550.400	-19.398	
550.500	-7.452	
550.600	-9.770	
550.700	-2.102	
550.800	-19.043	
550.900	-15.284	
551.000	-2.450	
551.100	-7.445	
551.200	-25.634	
551.300	-6.127	
551.400	12.325	
551.500	-9.397	
551.600	-2.646	
551.700	-12.188	
551.800	-14.030	
551.900	-7.562	
552.000	-9.163	
552.100	-11.787	
552.200	-16.825	
552.300	-12.252	
552.400	-2.706	
552.500	-15.101	
552.600	-9.406	
552.700	-11.744	
552.800	-12.571	
552.900	-2.849	
553.000	-11.759	
553.100	-5.258	
553.200	-20.232	
553.300	-24.042	
553.400	2.965	
553.500	-17.806	
553.600	-21.487	
553.700	-0.821	
553.800	-9.575	
553.900	-3.837	
554.000	-18.200	
554.100	-14.206	
554.200	-3.950	
554.300	-14.219	
554.400	-21.051	
554.500	-5.228	
554.600	-10.442	
554.700	0.486	
554.800	-33.568	
554.900	-4.290	
555.000	-4.745	
555.100	-11.246	
555.200	-28.269	
555.300	-15.078	
555.400	-7.766	
555.500	2.285	
555.600	-16.653	
555.700	-7.773	
555.800	-16.852	
555.900	-12.787	
556.000	5.290	
556.100	0.298	
556.200	-9.703	
556.300	-10.214	
556.400	2.920	
556.500	2.990	
556.600	-18.256	
556.700	-17.894	
556.800	-15.593	
556.900	-11.924	
557.000	-13.832	
557.100	-14.093	
557.200	-7.211	
557.300	-1.584	
557.400	-5.720	
557.500	-17.212	
557.600	-6.092	
557.700	-26.325	
557.800	3.181	
557.900	-13.993	
558.000	-13.744	
558.100	-24.190	
558.200	-25.863	
558.300	-22.998	
558.400	12.478	
558.500	-7.771	
558.600	-13.008	
558.700	-15.514	
558.800	-10.816	
558.900	-12.613	
559.000	-6.493	
559.100	-18.580	
559.200	-9.292	
559.300	-20.106	
559.400	-8.889	
559.500	-19.868	
559.600	-24.986	
559.700	-13.157	
559.800	-7.311	
559.900	-10.673	
560.000	-22.987	
560.100	-21.086	
560.200	1.391	
560.300	-11.269	
560.400	0.271	
560.500	-18.673	
560.600	-20.343	
560.700	-11.642	
560.800	-16.394	
560.900	-2.133	
561.000	-11.125	
561.100	-16.088	
561.200	-19.613	
561.300	-5.745	
561.400	-7.172	
561.500	-11.075	
561.600	-14.389	
561.700	1.523	
561.800	-25.351	
561.900	-6.069	
562.000	-9.967	
562.100	-15.830	
562.200	-7.642	
562.300	-18.146	
562.400	-19.421	
562.500	-32.581	
562.600	-12.222	
562.700	-2.166	
562.800	-0.280	
562.900	-13.356	
563.000	-2.952	
563.100	-34.775	
563.200	-13.156	
563.300	-3.300	
563.400	-24.807	
563.500	-13.784	
563.600	-18.982	
563.700	-13.050	
563.800	-13.123	
563.900	-21.830	
564.000	-0.132	
564.100	-9.378	
564.200	-11.069	
564.300	-12.823	
564.400	-10.897	
564.500	-14.694	
564.600	-6.038	
564.700	-24.915	
564.800	-6.777	
564.900	-9.466	
565.000	-5.922	
565.100	-7.568	
565.200	-18.332	
565.300	-8.817	
565.400	-13.564	
565.500	-24.351	
565.600	-1.470	
565.700	-12.387	
565.800	-24.854	
565.900	-13.805	
566.000	-12.529	
566.100	-8.031	
566.200	-19.308	
566.300	1.522	
566.400	-26.734	
566.500	-9.285	
566.600	-9.960	
566.700	-2.778	
566.800	-33.828	
566.900	-23.819	
567.000	-16.787	
567.100	-15.714	
567.200	-6.618	
567.300	-15.265	
567.400	-19.654	
567.500	-14.942	
567.600	-18.137	
567.700	-1.596	
567.800	-14.366	
567.900	-4.183	
568.000	-20.325	
568.100	-19.300	
568.200	0.963	
568.300	-7.308	
568.400	-25.289	
568.500	-20.017	
568.600	-24.817	
568.700	-7.693	
568.800	-18.802	
568.900	-6.189	
569.000	-9.504	
569.100	-6.159	
569.200	-12.365	
569.300	-16.834	
569.400	-14.566	
569.500	-18.695	
569.600	-16.633	
569.700	-16.312	
569.800	-18.175	
569.900	-16.302	
570.000	-8.931	
570.100	-7.685	
570.200	-11.074	
570.300	-30.415	
570.400	1.385	
570.500	-4.810	
570.600	0.727	
570.700	-19.892	
570.800	-17.457	
570.900	-20.219	
571.000	-20.615	
571.100	-9.856	
571.200	0.485	
571.300	-11.533	
571.400	-15.144	
571.500	-10.143	
571.600	-7.148	
571.700	-14.751	
571.800	-17.976	
571.900	-9.471	
572.000	-11.290	
572.100	-21.936	
572.200	-4.579	
572.300	-7.337	
572.400	-20.573	
572.500	-13.763	
572.600	-26.443	
572.700	-7.190	
572.800	-10.308	
572.900	-13.532	
573.000	-26.462	
573.100	-9.289	
573.200	-18.777	
573.300	-5.210	
573.400	-28.400	
573.500	-29.588	
573.600	-18.616	
573.700	-3.056	
573.800	-1.363	
573.900	-6.719	
574.000	-8.299	
574.100	-8.026	
574.200	-4.898	
574.300	-22.780	
574.400	-18.502	
574.500	-18.806	
574.600	-16.537	
574.700	-16.455	
574.800	-11.975	
574.900	-16.531	
575.000	-8.927	
575.100	-18.336	
575.200	5.671	
575.300	-12.756	
575.400	-11.765	
575.500	-5.752	
575.600	-24.922	
575.700	-17.524	
575.800	-25.749	
575.900	-14.204	
576.000	-13.355	
576.100	-4.606	
576.200	-27.939	
576.300	-15.135	
576.400	-18.300	
576.500	-7.260	
576.600	-15.508	
576.700	-8.414	
576.800	-6.407	
576.900	-14.860	
577.000	-17.573	
577.100	-6.707	
577.200	-10.452	
577.300	-12.548	
577.400	-25.354	
577.500	-20.132	
577.600	-5.582	
577.700	-10.867	
577.800	-11.158	
577.900	-22.360	
578.000	-19.860	
578.100	-5.467	
578.200	-10.892	
578.300	-20.585	
578.400	-17.487	
578.500	-20.912	
578.600	-15.130	
578.700	-6.020	
578.800	-18.609	
578.900	-11.889	
579.000	-3.156	
579.100	6.727	
579.200	-2.971	
579.300	-15.918	
579.400	-7.377	
579.500	-10.223	
579.600	-13.009	
579.700	-18.857	
579.800	-27.933	
579.900	-18.648	
580.000	-3.485	
580.100	-19.264	
580.200	-13.549	
580.300	-2.158	
580.400	-17.122	
580.500	-14.738	
580.600	-2.721	
580.700	-24.736	
580.800	-15.474	
580.900	-9.965	
581.000	-16.587	
581.100	-17.117	
581.200	-1.170	
581.300	-18.608	
581.400	-8.087	
581.500	-4.765	
581.600	-18.431	
581.700	-12.644	
581.800	-3.723	
581.900	-10.311	
582.000	-13.362	
582.100	-9.513	
582.200	0.139	
582.300	-22.318	
582.400	-15.772	
582.500	-13.003	
582.600	-25.044	
582.700	-9.577	
582.800	-8.050	
582.900	-11.141	
583.000	-27.015	
583.100	-9.420	
583.200	-4.639	
583.300	-17.357	
583.400	-14.741	
583.500	-19.288	
583.600	-17.208	
583.700	-15.920	
583.800	-22.505	
583.900	-8.525	
584.000	-4.632	
584.100	-18.256	
584.200	-29.505	
584.300	-10.978	
584.400	-4.698	
584.500	-9.908	
584.600	-4.620	
584.700	-24.656	
584.800	-13.621	
584.900	-21.681	
585.000	-6.678	
585.100	3.005	
585.200	-20.516	
585.300	-16.560	
585.400	-17.564	
585.500	-2.416	
585.600	-10.046	
585.700	-10.946	
585.800	-3.835	
585.900	-12.735	
586.000	-17.059	
586.100	-25.729	
586.200	-10.930	
586.300	-9.853	
586.400	-22.524	
586.500	-4.985	
586.600	-25.401	
586.700	-6.487	
586.800	-19.353	
586.900	-7.773	
587.000	-25.694	
587.100	-22.483	
587.200	-14.903	
587.300	-10.877	
587.400	-23.418	
587.500	-10.049	
587.600	-12.815	
587.700	1.292	
587.800	-5.203	
587.900	-9.185	
588.000	0.532	
588.100	-20.488	
588.200	-25.358	
588.300	-16.012	
588.400	-21.225	
588.500	-14.920	
588.600	-16.817	
588.700	-7.855	
588.800	-15.719	
588.900	-9.871	
589.000	-13.546	
589.100	-5.435	
589.200	-18.043	
589.300	-18.655	
589.400	-5.767	
589.500	-4.644	
589.600	-15.083	
589.700	-20.533	
589.800	-4.876	
589.900	-11.929	
590.000	-6.517	
590.100	-21.942	
590.200	-12.308	
590.300	-19.321	
590.400	-7.705	
590.500	-10.014	
590.600	-8.426	
590.700	-13.570	
590.800	-17.182	
590.900	-27.799	
591.000	-19.668	
591.100	-15.003	
591.200	-4.650	
591.300	-17.016	
591.400	-2.222	
591.500	-19.100	
591.600	-20.073	
591.700	-2.115	
591.800	-7.873	
591.900	-15.230	
592.000	-9.875	
592.100	-11.260	
592.200	-7.419	
592.300	-29.968	
592.400	-20.987	
592.500	-6.825	
592.600	-18.803	
592.700	-15.504	
592.800	-9.734	
592.900	-15.216	
593.000	-12.656	
593.100	-9.778	
593.200	-14.558	
593.300	-9.044	
593.400	-9.791	
593.500	-22.004	
593.600	-7.267	
593.700	-9.146	
593.800	-12.171	
593.900	-25.534	
594.000	-6.487	
594.100	-24.987	
594.200	-3.450	
594.300	-19.854	
594.400	-6.087	
594.500	-29.637	
594.600	1.483	
594.700	-5.371	
594.800	-19.667	
594.900	-13.759	
595.000	-18.577	
595.100	-21.109	
595.200	-12.601	
595.300	-11.989	
595.400	-11.327	
595.500	-16.275	
595.600	-11.535	
595.700	-10.115	
595.800	-10.216	
595.900	-13.675	
596.000	-11.172	
596.100	-9.854	
596.200	-1.816	
596.300	8.288	
596.400	-26.830	
596.500	-5.148	
596.600	-6.470	
596.700	-30.197	
596.800	-10.729	
596.900	-9.663	
597.000	-19.779	
597.100	7.489	
597.200	-4.487	
597.300	-0.892	
597.400	-15.928	
597.500	-28.004	
597.600	-9.795	
597.700	-9.218	
597.800	-19.444	
597.900	-3.907	
598.000	-10.749	
598.100	-12.587	
598.200	-14.978	
598.300	-20.267	
598.400	-2.875	
598.500	-9.893	
598.600	2.817	
598.700	-5.201	
598.800	-22.044	
598.900	-22.340	
599.000	9.808	
599.100	3.355	
599.200	-20.216	
599.300	4.532	
599.400	-7.134	
599.500	-9.452	
599.600	-14.829	
599.700	-21.063	
599.800	-21.200	
599.900	-2.478	
600.000	4.017	
600.100	-7.445	
600.200	-9.587	
600.300	-10.008	
600.400	-3.487	
600.500	-18.772	
600.600	-13.101	
600.700	-6.995	
600.800	-3.501	
600.900	-6.482	
601.000	-12.994	
601.100	5.018	
601.200	1.191	
601.300	-16.007	
601.400	-14.328	
601.500	-19.147	
601.600	-10.002	
601.700	-9.829	
601.800	-17.088	
601.900	-16.544	
602.000	-2.136	
602.100	-35.794	
602.200	-2.613	
602.300	4.782	
602.400	5.760	
602.500	-17.088	
602.600	-16.651	
602.700	8.433	
602.800	-19.295	
602.900	-12.370	
603.000	-6.156	
603.100	-4.975	
603.200	-28.220	
603.300	6.286	
603.400	-27.497	
603.500	1.902	
603.600	-8.328	
603.700	-8.434	
603.800	-5.756	
603.900	-17.863	
604.000	-9.549	
604.100	-4.303	
604.200	-18.349	
604.300	-11.047	
604.400	-22.868	
604.500	-2.118	
604.600	-10.674	
604.700	-3.121	
604.800	-5.724	
604.900	-3.501	
605.000	-14.097	
605.100	-15.967	
605.200	11.409	
605.300	-19.680	
605.400	-4.678	
605.500	-2.338	
605.600	-21.125	
605.700	-22.011	
605.800	-15.088	
605.900	-9.440	
606.000	-7.954	
606.100	-21.766	
606.200	-12.145	
606.300	-5.527	
606.400	-13.670	
606.500	-17.228	
606.600	-7.255	
606.700	-14.455	
606.800	-5.908	
606.900	-6.858	
607.000	-4.141	
607.100	-6.093	
607.200	-1.813	
607.300	-0.407	
607.400	-14.852	
607.500	-17.812	
607.600	-10.182	
607.700	-29.932	
607.800	1.234	
607.900	-8.963	
608.000	-14.736	
608.100	-10.143	
608.200	-10.157	
608.300	-11.512	
608.400	-14.680	
608.500	-7.059	
608.600	-10.799	
608.700	4.657	
608.800	-14.794	
608.900	-22.503	
609.000	16.315	
609.100	-13.206	
609.200	-3.339	
609.300	-12.210	
609.400	-8.776	
609.500	-1.219	
609.600	-3.103	
609.700	-3.012	
609.800	-8.129	
609.900	-0.942	
610.000	-3.957	
610.100	-9.230	
610.200	-16.392	
610.300	-1.009	
610.400	-8.820	
610.500	-9.564	
610.600	-15.928	
610.700	-7.921	
610.800	-0.187	
610.900	-19.635	
611.000	-17.307	
611.100	-4.383	
611.200	-6.870	
611.300	-13.731	
611.400	-0.415	
611.500	-2.409	
611.600	-15.549	
611.700	-14.804	
611.800	1.131	
611.900	-19.543	
612.000	-18.287	
612.100	-15.666	
612.200	2.998	
612.300	-15.448	
612.400	-0.584	
612.500	-6.678	
612.600	5.399	
612.700	-13.642	
612.800	-21.204	
612.900	-6.351	
613.000	-14.482	
613.100	1.931	
613.200	-4.198	
613.300	-6.381	
613.400	-14.745	
613.500	-10.122	
613.600	-16.719	
613.700	-9.609	
613.800	3.010	
613.900	-1.894	
614.000	-21.612	
614.100	-3.776	
614.200	-15.295	
614.300	4.383	
614.400	-8.936	
614.500	-8.082	
614.600	3.232	
614.700	-13.690	
614.800	-13.700	
614.900	-14.565	
615.000	-7.442	
615.100	-16.410	
615.200	-13.762	
615.300	-4.066	
615.400	-11.141	
615.500	-6.454	
615.600	-15.054	
615.700	-15.500	
615.800	7.742	
615.900	-13.381	
616.000	-10.168	
616.100	-5.112	
616.200	-1.986	
616.300	-5.772	
616.400	-15.737	
616.500	-12.351	
616.600	-4.193	
616.700	-11.572	
616.800	-11.999	
616.900	8.682	
617.000	-7.977	
617.100	-13.164	
617.200	-10.949	
617.300	5.785	
617.400	-6.290	
617.500	-11.855	
617.600	-9.253	
617.700	-12.528	
617.800	-7.728	
617.900	-1.638	
618.000	-17.169	
618.100	-12.291	
618.200	5.668	
618.300	-10.825	
618.400	-11.623	
618.500	-20.331	
618.600	9.930	
618.700	-15.232	
618.800	-7.788	
618.900	2.406	
619.000	-2.004	
619.100	-0.577	
619.200	-4.893	
619.300	-14.648	
619.400	-9.789	
619.500	-12.584	
619.600	-0.107	
619.700	-1.175	
619.800	-13.932	
619.900	-8.791	
620.000	-8.863	
620.100	-1.071	
620.200	-7.859	
620.300	-13.622	
620.400	1.611	
620.500	-7.779	
620.600	-10.787	
620.700	-17.933	
620.800	0.600	
620.900	14.471	
621.000	-21.072	
621.100	-2.977	
621.200	-13.765	
621.300	-4.959	
621.400	-8.016	
621.500	-17.685	
621.600	-0.983	
621.700	-4.619	
621.800	-15.392	
621.900	-9.420	
622.000	-11.903	
622.100	-15.113	
622.200	-14.297	
622.300	-10.479	
622.400	-2.162	
622.500	-13.573	
622.600	-2.546	
622.700	-2.279	
622.800	-3.058	
622.900	-0.141	
623.000	6.888	
623.100	-23.165	
623.200	-13.821	
623.300	-14.037	
623.400	7.323	
623.500	-11.333	
623.600	-2.145	
623.700	-16.691	
623.800	-9.903	
623.900	-3.779	
624.000	-9.755	
624.100	-11.115	
624.200	0.493	
624.300	5.270	
624.400	-14.476	
624.500	-0.536	
624.600	-17.634	
624.700	-3.053	
624.800	-6.751	
624.900	-15.935	
625.000	-5.501	
625.100	-9.904	
625.200	-1.601	
625.300	-7.268	
625.400	-22.451	
625.500	-5.471	
625.600	5.927	
625.700	-5.424	
625.800	-7.548	
625.900	-13.451	
626.000	-11.366	
626.100	-13.270	
626.200	-10.210	
626.300	-9.823	
626.400	-9.371	
626.500	3.849	
626.600	-12.376	
626.700	-8.948	
626.800	-3.158	
626.900	-10.364	
627.000	-20.429	
627.100	-6.203	
627.200	-8.011	
627.300	-6.597	
627.400	-3.046	
627.500	-2.935	
627.600	-25.457	
627.700	-11.065	
627.800	3.197	
627.900	-9.852	
628.000	-9.766	
628.100	-7.088	
628.200	-8.320	
628.300	3.373	
628.400	-15.188	
628.500	-10.039	
628.600	9.606	
628.700	-9.026	
628.800	-0.284	
628.900	-5.970	
629.000	2.523	
629.100	-24.605	
629.200	-7.553	
629.300	-3.344	
629.400	7.214	
629.500	-7.505	
629.600	-11.068	
629.700	-13.811	
629.800	-1.274	
629.900	-12.592	
630.000	2.010	
630.100	-1.350	
630.200	-20.500	
630.300	-10.852	
630.400	25.219	
630.500	5.503	
630.600	9.657	
630.700	14.129	
630.800	11.730	
630.900	-1.187	
631.000	26.436	
631.100	17.290	
631.200	29.284	
631.300	25.667	
631.400	25.594	
631.500	15.443	
631.600	10.388	
631.700	25.667	
631.800	13.603	
631.900	23.272	
632.000	27.779	
632.100	28.246	
632.200	29.372	
632.300	25.202	
632.400	9.605	
632.500	11.635	
632.600	30.199	
632.700	36.562	
632.800	18.155	
632.900	25.308	
633.000	24.943	
633.100	22.542	
633.200	22.975	
633.300	30.570	
633.400	8.810	
633.500	30.837	
633.600	26.122	
633.700	21.854	
633.800	14.587	
633.900	20.327	
634.000	25.098	
634.100	27.222	
634.200	22.919	
634.300	-3.143	
634.400	18.748	
634.500	14.591	
634.600	15.264	
634.700	14.323	
634.800	30.754	
634.900	22.768	
635.000	22.153	
635.100	21.596	
635.200	9.126	
635.300	13.661	
635.400	10.695	
635.500	23.727	
635.600	13.200	
635.700	29.422	
635.800	3.583	
635.900	21.695	
636.000	10.144	
636.100	12.109	
636.200	19.528	
636.300	7.668	
636.400	-2.598	
636.500	28.128	
636.600	20.719	
636.700	15.633	
636.800	20.744	
636.900	35.634	
637.000	12.605	
637.100	5.890	
637.200	21.492	
637.300	13.746	
637.400	16.117	
637.500	22.416	
637.600	15.991	
637.700	23.543	
637.800	29.273	
637.900	19.805	
638.000	22.039	
638.100	33.960	
638.200	19.926	
638.300	22.835	
638.400	25.807	
638.500	10.140	
638.600	35.840	
638.700	15.700	
638.800	13.331	
638.900	19.586	
639.000	22.654	
639.100	18.031	
639.200	37.865	
639.300	20.365	
639.400	35.864	
639.500	33.134	
639.600	24.162	
639.700	29.461	
639.800	17.720	
639.900	14.894	
640.000	17.353	
640.100	33.843	
640.200	24.654	
640.300	34.768	
640.400	44.301	
640.500	34.137	
640.600	19.122	
640.700	31.377	
640.800	35.879	
640.900	27.630	
641.000	18.447	
641.100	34.873	
641.200	29.937	
641.300	37.231	
641.400	34.264	
641.500	15.971	
641.600	23.684	
641.700	36.416	
641.800	35.275	
641.900	30.060	
642.000	39.219	
642.100	30.647	
642.200	29.811	
642.300	19.225	
642.400	43.701	
642.500	16.541	
642.600	32.370	
642.700	41.405	
642.800	42.389	
642.900	32.813	
643.000	34.517	
643.100	36.828	
643.200	44.743	
643.300	36.543	
643.400	36.814	
643.500	26.501	
643.600	29.861	
643.700	26.809	
643.800	33.909	
643.900	46.836	
644.000	33.925	
644.100	34.039	
644.200	33.228	
644.300	27.563	
644.400	41.928	
644.500	33.652	
644.600	29.005	
644.700	29.966	
644.800	38.000	
644.900	31.904	
645.000	42.640	
645.100	42.090	
645.200	36.899	
645.300	39.558	
645.400	37.994	
645.500	43.491	
645.600	39.104	
645.700	32.581	
645.800	48.647	
645.900	42.352	
646.000	40.933	
646.100	35.890	
646.200	38.348	
646.300	44.555	
646.400	36.020	
646.500	38.580	
646.600	36.680	
646.700	32.600	
646.800	42.290	
646.900	44.478	
647.000	38.862	
647.100	38.972	
647.200	53.066	
647.300	24.342	
647.400	51.218	
647.500	39.217	
647.600	41.942	
647.700	21.783	
647.800	45.701	
647.900	32.400	
648.000	35.092	
648.100	42.727	
648.200	46.012	
648.300	45.617	
648.400	47.930	
648.500	31.202	
648.600	43.749	
648.700	26.070	
648.800	41.282	
648.900	51.641	
649.000	46.126	
649.100	52.414	
649.200	34.321	
649.300	48.582	
649.400	52.659	
649.500	32.032	
649.600	37.334	
649.700	49.750	
649.800	35.826	
649.900	35.170	
650.000	43.997	
650.100	38.984	
650.200	45.184	
650.300	53.832	
650.400	37.523	
650.500	50.600	
650.600	45.934	
650.700	37.314	
650.800	50.642	
650.900	41.801	
651.000	47.546	
651.100	30.033	
651.200	24.979	
651.300	39.420	
651.400	43.392	
651.500	39.393	
651.600	43.027	
651.700	47.519	
651.800	43.547	
651.900	41.910	
652.000	35.341	
652.100	33.912	
652.200	39.230	
652.300	33.227	
652.400	31.908	
652.500	37.855	
652.600	38.312	
652.700	52.191	
652.800	40.062	
652.900	45.981	
653.000	49.021	
653.100	41.057	
653.200	40.859	
653.300	53.328	
653.400	46.722	
653.500	39.432	
653.600	50.920	
653.700	29.843	
653.800	39.066	
653.900	45.895	
654.000	44.077	
654.100	32.254	
654.200	41.503	
654.300	35.596	
654.400	56.226	
654.500	29.132	
654.600	28.139	
654.700	39.544	
654.800	40.374	
654.900	47.011	
655.000	39.030	
655.100	28.116	
655.200	41.038	
655.300	34.455	
655.400	38.457	
655.500	62.354	
655.600	34.316	
655.700	44.740	
655.800	37.454	
655.900	42.186	
656.000	39.614	
656.100	51.786	
656.200	29.210	
656.300	48.622	
656.400	30.422	
656.500	39.931	
656.600	23.634	
656.700	57.779	
656.800	40.628	
656.900	41.398	
657.000	34.774	
657.100	39.811	
657.200	45.226	
657.300	22.413	
657.400	41.765	
657.500	36.631	
657.600	38.679	
657.700	42.981	
657.800	45.686	
657.900	35.768	
658.000	38.054	
658.100	46.781	
658.200	42.305	
658.300	40.317	
658.400	23.869	
658.500	17.765	
658.600	56.590	
658.700	52.422	
658.800	50.867	
658.900	33.664	
659.000	39.340	
659.100	39.631	
659.200	40.806	
659.300	35.012	
659.400	22.230	
659.500	41.237	
659.600	41.288	
659.700	47.090	
659.800	34.307	
659.900	33.294	
660.000	31.144	
660.100	41.820	
660.200	56.508	
660.300	44.822	
660.400	42.579	
660.500	15.235	
660.600	48.473	
660.700	35.801	
660.800	34.161	
660.900	33.655	
661.000	41.229	
661.100	41.307	
661.200	32.554	
661.300	42.135	
661.400	53.468	
661.500	34.571	
661.600	42.571	
661.700	39.514	
661.800	36.092	
661.900	38.168	
662.000	40.178	
662.100	44.762	
662.200	37.431	
662.300	19.395	
662.400	27.048	
662.500	36.076	
662.600	39.948	
662.700	39.577	
662.800	25.659	
662.900	46.759	
663.000	42.077	
663.100	38.018	
663.200	38.885	
663.300	32.957	
663.400	52.402	
663.500	40.408	
663.600	41.043	
663.700	26.578	
663.800	23.737	
663.900	38.133	
664.000	43.207	
664.100	28.082	
664.200	39.395	
664.300	31.511	
664.400	50.233	
664.500	36.307	
664.600	37.155	
664.700	37.675	
664.800	39.279	
664.900	28.655	
665.000	36.019	
665.100	38.746	
665.200	39.301	
665.300	39.101	
665.400	37.161	
665.500	45.474	
665.600	36.965	
665.700	38.740	
665.800	40.292	
665.900	25.870	
666.000	39.937	
666.100	41.877	
666.200	36.405	
666.300	26.137	
666.400	35.446	
666.500	32.508	
666.600	35.155	
666.700	31.888	
666.800	34.039	
666.900	52.443	
667.000	43.606	
667.100	35.804	
667.200	33.624	
667.300	41.948	
667.400	50.837	
667.500	19.951	
667.600	34.730	
667.700	35.621	
667.800	54.037	
667.900	32.534	
668.000	45.210	
668.100	38.474	
668.200	26.389	
668.300	32.741	
668.400	37.409	
668.500	33.001	
668.600	46.198	
668.700	34.134	
668.800	45.329	
668.900	30.837	
669.000	34.067	
669.100	25.211	
669.200	38.171	
669.300	39.373	
669.400	33.662	
669.500	43.830	
669.600	35.994	
669.700	34.960	
669.800	45.609	
669.900	35.469	
670.000	30.332	
670.100	41.038	
670.200	37.092	
670.300	42.304	
670.400	46.566	
670.500	30.539	
670.600	30.571	
670.700	28.516	
670.800	30.061	
670.900	31.908	
671.000	44.727	
671.100	35.804	
671.200	33.526	
671.300	37.985	
671.400	43.032	
671.500	31.774	
671.600	34.103	
671.700	46.476	
671.800	24.981	
671.900	53.821	
672.000	30.212	
672.100	29.213	
672.200	45.250	
672.300	37.678	
672.400	32.744	
672.500	32.812	
672.600	29.450	
672.700	46.772	
672.800	34.459	
672.900	23.337	
673.000	32.003	
673.100	41.838	
673.200	24.832	
673.300	50.723	
673.400	36.127	
673.500	36.442	
673.600	44.706	
673.700	36.822	
673.800	24.116	
673.900	33.211	
674.000	36.092	
674.100	28.402	
674.200	38.158	
674.300	39.942	
674.400	37.121	
674.500	35.828	
674.600	29.049	
674.700	27.048	
674.800	45.834	
674.900	29.858	
675.000	27.230	
675.100	27.816	
675.200	35.480	
675.300	42.048	
675.400	26.986	
675.500	29.391	
675.600	41.646	
675.700	35.668	
675.800	33.703	
675.900	31.204	
676.000	39.483	
676.100	29.460	
676.200	42.676	
676.300	30.822	
676.400	34.487	
676.500	21.015	
676.600	45.211	
676.700	26.711	
676.800	28.992	
676.900	39.167	
677.000	34.992	
677.100	28.644	
677.200	37.300	
677.300	39.535	
677.400	42.748	
677.500	40.512	
677.600	46.720	
677.700	24.983	
677.800	41.259	
677.900	27.801	
678.000	26.453	
678.100	33.650	
678.200	37.252	
678.300	26.159	
678.400	43.861	
678.500	38.340	
678.600	38.255	
678.700	35.858	
678.800	31.662	
678.900	40.077	
679.000	21.919	
679.100	26.303	
679.200	37.935	
679.300	41.546	
679.400	36.577	
679.500	39.491	
679.600	45.151	
679.700	33.385	
679.800	35.505	
679.900	22.078	
680.000	37.654	
680.100	34.683	
680.200	39.400	
680.300	34.272	
680.400	45.588	
680.500	24.716	
680.600	34.840	
680.700	30.321	
680.800	28.493	
680.900	53.214	
681.000	32.870	
681.100	27.354	
681.200	24.676	
681.300	27.785	
681.400	25.281	
681.500	29.484	
681.600	39.212	
681.700	39.860	
681.800	32.282	
681.900	23.394	
682.000	32.542	
682.100	37.474	
682.200	39.016	
682.300	36.859	
682.400	34.209	
682.500	38.342	
682.600	34.006	
682.700	23.170	
682.800	25.342	
682.900	31.056	
683.000	17.248	
683.100	35.809	
683.200	37.347	
683.300	37.024	
683.400	23.319	
683.500	24.831	
683.600	31.126	
683.700	41.763	
683.800	37.775	
683.900	39.229	
684.000	23.029	
684.100	42.140	
684.200	43.888	
684.300	21.195	
684.400	25.710	
684.500	38.707	
684.600	24.209	
684.700	38.162	
684.800	29.258	
684.900	28.326	
685.000	30.035	
685.100	32.557	
685.200	20.406	
685.300	39.149	
685.400	33.628	
685.500	29.739	
685.600	34.768	
685.700	22.545	
685.800	42.821	
685.900	43.919	
686.000	39.583	
686.100	31.132	
686.200	31.661	
686.300	35.530	
686.400	26.862	
686.500	47.444	
686.600	41.794	
686.700	24.791	
686.800	26.305	
686.900	50.361	
687.000	31.826	
687.100	40.525	
687.200	35.020	
687.300	30.663	
687.400	40.228	
687.500	36.869	
687.600	42.022	
687.700	32.667	
687.800	45.378	
687.900	29.753	
688.000	43.353	
688.100	44.251	
688.200	28.529	
688.300	36.957	
688.400	30.677	
688.500	38.334	
688.600	42.818	
688.700	40.066	
688.800	18.975	
688.900	34.059	
689.000	30.949	
689.100	36.229	
689.200	44.683	
689.300	18.936	
689.400	53.848	
689.500	39.022	
689.600	35.500	
689.700	30.728	
689.800	32.662	
689.900	31.847	
690.000	31.807	
690.100	34.320	
690.200	27.868	
690.300	21.635	
690.400	10.139	
690.500	32.329	
690.600	20.094	
690.700	23.134	
690.800	14.914	
690.900	28.435	
691.000	19.707	
691.100	16.258	
691.200	6.940	
691.300	-9.196	
691.400	21.088	
691.500	8.301	
691.600	6.280	
691.700	15.204	
691.800	-11.389	
691.900	1.206	
692.000	-4.601	
692.100	-1.323	
692.200	-5.694	
692.300	-15.164	
692.400	-15.710	
692.500	12.090	
692.600	-4.253	
692.700	-22.154	
692.800	1.359	
692.900	-9.438	
693.000	-5.443	
693.100	-24.717	
693.200	-24.344	
693.300	-9.819	
693.400	-21.006	
693.500	-2.920	
693.600	-12.884	
693.700	-16.019	
693.800	-3.574	
693.900	-0.801	
694.000	-21.946	
694.100	-16.354	
694.200	-9.095	
694.300	-26.288	
694.400	-17.515	
694.500	-12.975	
694.600	-21.775	
694.700	-16.429	
694.800	-15.123	
694.900	-7.085	
695.000	-8.883	
695.100	-13.229	
695.200	-29.133	
695.300	-8.260	
695.400	-15.637	
695.500	-14.029	
695.600	-4.133	
695.700	-18.910	
695.800	-12.907	
695.900	-6.827	
696.000	-14.281	
696.100	-19.931	
696.200	-22.101	
696.300	-6.385	
696.400	-18.517	
696.500	-7.549	
696.600	-10.885	
696.700	-21.846	
696.800	-17.242	
696.900	-10.971	
697.000	1.521	
697.100	-8.348	
697.200	-23.195	
697.300	-5.575	
697.400	-14.388	
697.500	-5.043	
697.600	-7.996	
697.700	-8.749	
697.800	-14.344	
697.900	-26.790	
698.000	-11.138	
698.100	-14.060	
698.200	-11.168	
698.300	-16.168	
698.400	-7.652	
698.500	-21.172	
698.600	-1.221	
698.700	-0.028	
698.800	-14.779	
698.900	-8.022	
699.000	-16.753	
699.100	-18.229	
699.200	-15.217	
699.300	-21.329	
699.400	-12.208	
699.500	-13.300	
699.600	-18.203	
699.700	-11.608	
699.800	-12.048	
699.900	-13.008	
700.000	-5.548	
700.100	-7.391	
700.200	-22.404	
700.300	-8.305	
700.400	-18.595	
700.500	-10.531	
700.600	-10.714	
700.700	-7.940	
700.800	-25.240	
700.900	-13.475	
701.000	-3.616	
701.100	0.500	
701.200	-8.887	
701.300	-20.241	
701.400	-16.783	
701.500	-7.099	
701.600	-13.562	
701.700	-19.142	
701.800	3.295	
701.900	-14.307	
702.000	-9.827	
702.100	-19.719	
702.200	-24.402	
702.300	0.926	
702.400	-12.407	
702.500	-13.127	
702.600	-8.019	
702.700	-14.250	
702.800	-16.920	
702.900	-16.523	
703.000	-6.479	
703.100	-11.049	
703.200	-12.681	
703.300	-9.710	
703.400	-15.258	
703.500	-9.216	
703.600	-18.573	
703.700	-9.384	
703.800	7.573	
703.900	-14.839	
704.000	-8.888	
704.100	-10.796	
704.200	-24.383	
704.300	7.705	
704.400	-18.246	
704.500	-5.632	
704.600	-13.411	
704.700	-1.776	
704.800	-13.987	
704.900	-7.567	
705.000	-17.178	
705.100	3.208	
705.200	-29.319	
705.300	-8.330	
705.400	-5.314	
705.500	-10.660	
705.600	-12.082	
705.700	-18.846	
705.800	-29.321	
705.900	-12.311	
706.000	-2.172	
706.100	-11.445	
706.200	-4.743	
706.300	-20.106	
706.400	-2.515	
706.500	-13.229	
706.600	-7.830	
706.700	-16.208	
706.800	-6.715	
706.900	-26.457	
707.000	-4.380	
707.100	-9.619	
707.200	-18.737	
707.300	-3.150	
707.400	-5.992	
707.500	-20.865	
707.600	-16.761	
707.700	-6.962	
707.800	-13.199	
707.900	-10.225	
708.000	-4.162	
708.100	-14.992	
708.200	-7.570	
708.300	-1.695	
708.400	-10.915	
708.500	-21.168	
708.600	-19.271	
708.700	-13.613	
708.800	-27.005	
708.900	-20.321	
709.000	-9.773	
709.100	-16.408	
709.200	-5.790	
709.300	-23.766	
709.400	-17.020	
709.500	-23.239	
709.600	-5.823	
709.700	-18.313	
709.800	-12.246	
709.900	-7.073	
710.000	-17.646	
710.100	-5.662	
710.200	-2.794	
710.300	-10.054	
710.400	-9.854	
710.500	-11.500	
710.600	-12.607	
710.700	-14.434	
710.800	-7.336	
710.900	-11.393	
711.000	-10.848	
711.100	-27.222	
711.200	-20.292	
711.300	-3.702	
711.400	-9.527	
711.500	-13.612	
711.600	-17.034	
711.700	-16.622	
711.800	-16.366	
711.900	-14.162	
712.000	-28.511	
712.100	-16.300	
712.200	-8.827	
712.300	-17.677	
712.400	-2.554	
712.500	7.449	
712.600	-1.527	
712.700	-33.300	
712.800	-9.568	
712.900	-14.351	
713.000	-27.717	
713.100	-6.443	
713.200	-11.455	
713.300	-18.278	
713.400	-18.280	
713.500	-12.082	
713.600	-1.176	
713.700	-15.294	
713.800	-19.593	
713.900	-7.603	
714.000	-16.897	
714.100	-10.925	
714.200	-30.035	
714.300	-2.987	
714.400	-11.431	
714.500	-13.866	
714.600	-17.091	
714.700	-9.926	
714.800	-4.230	
714.900	-14.827	
715.000	-12.843	
715.100	-20.524	
715.200	0.226	
715.300	-18.332	
715.400	-16.965	
715.500	4.697	
715.600	-11.554	
715.700	-11.636	
715.800	-10.989	
715.900	-11.178	
716.000	-10.021	
716.100	-11.195	
716.200	-15.533	
716.300	-13.825	
716.400	-11.310	
716.500	-0.495	
716.600	-12.576	
716.700	-7.252	
716.800	-16.791	
716.900	-17.986	
717.000	-11.075	
717.100	-25.369	
717.200	-13.557	
717.300	-13.865	
717.400	0.782	
717.500	-19.205	
717.600	-9.449	
717.700	-7.761	
717.800	-22.519	
717.900	-19.897	
718.000	-11.137	
718.100	-11.169	
718.200	-13.227	
718.300	-9.834	
718.400	-8.128	
718.500	-18.410	
718.600	-29.140	
718.700	3.692	
718.800	-11.403	
718.900	-12.739	
719.000	-5.549	
719.100	-21.059	
719.200	-16.510	
719.300	-9.279	
719.400	-21.375	
719.500	-8.526	
719.600	-20.865	
719.700	-13.141	
719.800	-17.258	
719.900	-4.922	
720.000	-15.062	
720.100	-18.239	
720.200	-22.838	
720.300	-18.952	
720.400	-14.447	
720.500	-4.595	
720.600	-19.317	
720.700	-17.378	
720.800	-22.255	
720.900	-20.400	
721.000	-14.777	
721.100	-12.323	
721.200	-7.570	
721.300	-11.473	
721.400	-14.098	
721.500	-24.889	
721.600	-11.916	
721.700	-15.395	
721.800	-31.932	
721.900	-13.586	
722.000	-13.131	
722.100	-18.220	
722.200	-16.624	
722.300	-12.962	
722.400	-18.592	
722.500	-11.000	
722.600	-21.480	
722.700	-32.365	
722.800	-11.932	
722.900	-5.662	
723.000	-24.400	
723.100	-11.669	
723.200	-19.480	
723.300	-9.721	
723.400	-1.689	
723.500	-12.525	
723.600	-18.203	
723.700	-18.981	
723.800	-27.298	
723.900	-26.901	
724.000	-29.049	
724.100	-17.394	
724.200	-18.921	
724.300	-4.703	
724.400	-3.313	
724.500	-23.777	
724.600	-10.042	
724.700	-8.361	
724.800	-8.635	
724.900	-23.503	
725.000	-13.075	
725.100	-5.165	
725.200	-20.232	
725.300	-19.625	
725.400	-15.241	
725.500	-24.063	
725.600	-16.336	
725.700	-10.276	
725.800	-19.545	
725.900	-18.561	
726.000	-12.265	
726.100	-12.851	
726.200	-8.328	
726.300	-10.083	
726.400	-20.264	
726.500	-17.235	
726.600	-22.486	
726.700	-4.374	
726.800	-22.041	
726.900	-6.834	
727.000	-12.947	
727.100	-20.435	
727.200	-1.243	
727.300	-21.090	
727.400	-9.174	
727.500	-12.832	
727.600	-31.822	
727.700	-17.517	
727.800	-25.454	
727.900	1.427	
728.000	-10.851	
728.100	-9.508	
728.200	-18.504	
728.300	-7.273	
728.400	-26.666	
728.500	1.693	
728.600	-12.233	
728.700	-20.228	
728.800	-17.713	
728.900	-18.651	
729.000	-10.018	
729.100	-14.263	
729.200	-11.066	
729.300	-16.879	
729.400	-17.235	
729.500	-7.592	
729.600	-12.210	
729.700	-15.160	
729.800	10.783	
729.900	-13.093	
730.000	-17.229	
730.100	-14.523	
730.200	-11.328	
730.300	-13.880	
730.400	-18.684	
730.500	-17.584	
730.600	-16.826	
730.700	-18.274	
730.800	-18.855	
730.900	-14.085	
731.000	-17.700	
731.100	-21.923	
731.200	-13.434	
731.300	-19.450	
731.400	-16.980	
731.500	-15.558	
731.600	-14.110	
731.700	-7.619	
731.800	-14.067	
731.900	-14.071	
732.000	-12.492	
732.100	-18.031	
732.200	-17.532	
732.300	-7.692	
732.400	-8.610	
732.500	-24.865	
732.600	-11.291	
732.700	-15.550	
732.800	-22.517	
732.900	-4.699	
733.000	-8.966	
733.100	-15.282	
733.200	-8.455	
733.300	-1.840	
733.400	-12.527	
733.500	-9.132	
733.600	-10.274	
733.700	-16.942	
733.800	-12.281	
733.900	-18.589	
734.000	-5.488	
734.100	-22.924	
734.200	-28.884	
734.300	-12.114	
734.400	-0.741	
734.500	4.202	
734.600	-8.742	
734.700	-26.955	
734.800	-9.787	
734.900	-18.941	
735.000	-7.257	
735.100	-0.211	
735.200	-10.919	
735.300	3.009	
735.400	-22.163	
735.500	-4.993	
735.600	-16.949	
735.700	-15.445	
735.800	-2.088	
735.900	-18.659	
736.000	-6.891	
736.100	-12.347	
736.200	-25.902	
736.300	-21.456	
736.400	-15.899	
736.500	-15.824	
736.600	-11.432	
736.700	-3.742	
736.800	-22.404	
736.900	2.931	
737.000	-8.915	
737.100	-10.711	
737.200	-19.711	
737.300	-17.569	
737.400	-1.164	
737.500	-26.845	
737.600	-28.955	
737.700	-7.281	
737.800	-15.193	
737.900	-10.278	
738.000	-17.073	
738.100	-15.317	
738.200	-7.564	
738.300	-5.068	
738.400	-9.074	
738.500	-28.282	
738.600	-6.414	
738.700	-10.850	
738.800	-9.343	
738.900	-0.300	
739.000	-15.047	
739.100	-27.622	
739.200	-7.027	
739.300	-9.991	
739.400	-12.138	
739.500	-28.383	
739.600	-11.652	
739.700	-8.759	
739.800	-18.015	
739.900	-22.699	
740.000	-8.319	
740.100	-18.743	
740.200	-1.247	
740.300	-27.984	
740.400	-10.410	
740.500	-23.103	
740.600	-11.091	
740.700	-3.641	
740.800	-8.927	
740.900	-9.124	
741.000	-17.365	
741.100	-15.605	
741.200	0.202	
741.300	-21.806	
741.400	-12.856	
741.500	-15.383	
741.600	-15.026	
741.700	-12.714	
741.800	-17.680	
741.900	-18.602	
742.000	-3.993	
742.100	-16.555	
742.200	-6.265	
742.300	-11.254	
742.400	-8.708	
742.500	-7.598	
742.600	-18.111	
742.700	-11.510	
742.800	5.427	
742.900	-22.116	
743.000	-26.474	
743.100	0.392	
743.200	-3.571	
743.300	-21.270	
743.400	0.465	
743.500	-29.964	
743.600	-12.790	
743.700	2.975	
743.800	-25.163	
743.900	-14.094	
744.000	-18.448	
744.100	-5.798	
744.200	-2.053	
744.300	-13.009	
744.400	3.207	
744.500	-28.258	
744.600	-9.635	
744.700	-13.515	
744.800	-7.121	
744.900	-8.641	
745.000	-19.856	
745.100	-14.693	
745.200	-8.400	
745.300	0.381	
745.400	-20.982	
745.500	-13.552	
745.600	-18.007	
745.700	-7.071	
745.800	-9.023	
745.900	-11.962	
746.000	-17.282	
746.100	-2.401	
746.200	-11.513	
746.300	-14.810	
746.400	-7.647	
746.500	-7.232	
746.600	-15.543	
746.700	-0.056	
746.800	-5.331	
746.900	-15.889	
747.000	-7.201	
747.100	-15.721	
747.200	-10.079	
747.300	4.360	
747.400	-19.791	
747.500	-6.020	
747.600	-15.134	
747.700	-4.675	
747.800	-12.383	
747.900	-7.750	
748.000	-18.335	
748.100	-22.581	
748.200	2.393	
748.300	-12.597	
748.400	-24.919	
748.500	-15.111	
748.600	-12.903	
748.700	-10.706	
748.800	-26.638	
748.900	-9.240	
749.000	-15.656	
749.100	-8.720	
749.200	-14.803	
749.300	-6.834	
749.400	-11.632	
749.500	-11.303	
749.600	-16.180	
749.700	-4.061	
749.800	-19.879	
749.900	-23.056	
750.000	-19.584	
750.100	19.919	
750.200	-3.158	
750.300	-8.510	
750.400	-7.418	
750.500	-19.697	
750.600	-13.839	
750.700	-14.668	
750.800	-9.984	
750.900	-4.761	
751.000	-18.388	
751.100	-10.329	
751.200	-3.449	
751.300	-5.775	
751.400	-25.231	
751.500	-10.294	
751.600	-15.808	
751.700	-17.605	
751.800	-13.205	
751.900	1.985	
752.000	-23.165	
752.100	-9.134	
752.200	-6.177	
752.300	-2.848	
752.400	-2.009	
752.500	-8.719	
752.600	-13.341	
752.700	-2.888	
752.800	-9.286	
752.900	-24.811	
753.000	-1.434	
753.100	-6.638	
753.200	-3.530	
753.300	-7.076	
753.400	-3.273	
753.500	-20.426	
753.600	-20.878	
753.700	-8.022	
753.800	-18.041	
753.900	-3.777	
754.000	-19.948	
754.100	-2.567	
754.200	-11.224	
754.300	-18.244	
754.400	-9.028	
754.500	-15.946	
754.600	-0.542	
754.700	-9.845	
754.800	-10.185	
754.900	-8.870	
755.000	-18.189	
755.100	-5.979	
755.200	2.173	
755.300	-7.260	
755.400	-20.168	
755.500	-20.999	
755.600	-8.018	
755.700	3.579	
755.800	-0.928	
755.900	-11.479	
756.000	-7.795	
756.100	-8.431	
756.200	-9.377	
756.300	-7.994	
756.400	-10.137	
756.500	-12.238	
756.600	0.355	
756.700	-22.969	
756.800	5.107	
756.900	-13.073	
757.000	-14.002	
757.100	-2.383	
757.200	-18.439	
757.300	-18.540	
757.400	-15.468	
757.500	-12.095	
757.600	-8.209	
757.700	-14.955	
757.800	-12.757	
757.900	-9.285	
758.000	-7.348	
758.100	-5.505	
758.200	-19.018	
758.300	-18.894	
758.400	-12.801	
758.500	-12.824	
758.600	-6.260	
758.700	-11.076	
758.800	-2.161	
758.900	-12.487	
759.000	-6.992	
759.100	-5.018	
759.200	-8.083	
759.300	-16.169	
759.400	-5.497	
759.500	-12.715	
759.600	-13.411	
759.700	-1.429	
759.800	-14.334	
759.900	-0.468	
760.000	-3.536	
760.100	-9.733	
760.200	-26.577	
760.300	-3.788	
760.400	-12.040	
760.500	-3.331	
760.600	-22.515	
760.700	2.804	
760.800	-13.798	
760.900	-9.806	
761.000	-9.241	
761.100	-10.688	
761.200	-19.403	
761.300	-24.894	
761.400	-10.133	
761.500	3.479	
761.600	-3.130	
761.700	-9.756	
761.800	-3.940	
761.900	-2.312	
762.000	-17.167	
762.100	-1.662	
762.200	2.466	
762.300	-16.858	
762.400	-20.468	
762.500	-17.884	
762.600	-0.924	
762.700	-7.248	
762.800	-9.951	
762.900	-12.556	
763.000	-1.838	
763.100	-21.369	
763.200	-14.524	
763.300	-0.878	
763.400	-11.579	
763.500	-3.660	
763.600	-7.842	
763.700	-15.584	
763.800	-10.981	
763.900	-19.797	
764.000	1.942	
764.100	-17.167	
764.200	0.012	
764.300	3.040	
764.400	-15.127	
764.500	-11.611	
764.600	-5.369	
764.700	-17.194	
764.800	-6.902	
764.900	-15.723	
765.000	-8.311	
765.100	-9.416	
765.200	-14.531	
765.300	-4.565	
765.400	8.231	
765.500	-20.563	
765.600	5.771	
765.700	-7.183	
765.800	-10.980	
765.900	-8.654	
766.000	-4.084	
766.100	-12.134	
766.200	-6.046	
766.300	-12.384	
766.400	-6.854	
766.500	-22.996	
766.600	-8.176	
766.700	-2.403	
766.800	-13.175	
766.900	-7.382	
767.000	-5.037	
767.100	4.930	
767.200	-13.022	
767.300	-14.142	
767.400	-16.384	
767.500	-13.534	
767.600	1.110	
767.700	-6.131	
767.800	-17.865	
767.900	0.213	
768.000	-13.761	
768.100	-27.927	
768.200	3.643	
768.300	-3.371	
768.400	3.006	
768.500	-21.611	
768.600	-8.858	
768.700	-1.871	
768.800	-29.630	
768.900	-17.759	
769.000	-18.382	
769.100	-7.548	
769.200	-8.265	
769.300	-14.601	
769.400	-2.181	
769.500	-4.208	
769.600	-11.344	
769.700	-5.108	
769.800	-5.263	
769.900	-24.809	
770.000	-12.675	
770.100	-14.554	
770.200	-10.461	
770.300	-9.295	
770.400	-17.015	
770.500	1.283	
770.600	-25.273	
770.700	-11.758	
770.800	2.202	
770.900	11.495	
771.000	-4.507	
771.100	-7.972	
771.200	-13.550	
771.300	-4.158	
771.400	-6.630	
771.500	1.085	
771.600	-15.839	
771.700	-8.387	
771.800	-16.386	
771.900	-25.218	
772.000	0.508	
772.100	-10.188	
772.200	-5.849	
772.300	-7.156	
772.400	-7.845	
772.500	-12.173	
772.600	-13.279	
772.700	-10.337	
772.800	-2.327	
772.900	-10.902	
773.000	-20.687	
773.100	-14.779	
773.200	-14.340	
773.300	-7.619	
773.400	-8.873	
773.500	-3.888	
773.600	-10.969	
773.700	-3.198	
773.800	-16.209	
773.900	-14.134	
774.000	-10.751	
774.100	-1.808	
774.200	-17.101	
774.300	-12.640	
774.400	-2.396	
774.500	-10.368	
774.600	-7.415	
774.700	-13.895	
774.800	-4.077	
774.900	-19.038	
775.000	-28.044	
775.100	-2.945	
775.200	-3.869	
775.300	-11.657	
775.400	-2.926	
775.500	-9.802	
775.600	-0.640	
775.700	-6.125	
775.800	-6.494	
775.900	-15.542	
776.000	7.378	
776.100	-3.784	
776.200	-14.894	
776.300	-25.024	
776.400	2.022	
776.500	1.217	
776.600	-9.599	
776.700	-5.425	
776.800	6.039	
776.900	-9.364	
777.000	-11.164	
777.100	1.963	
777.200	-24.699	
777.300	-5.918	
777.400	-13.297	
777.500	-13.845	
777.600	0.179	
777.700	-6.528	
777.800	-18.756	
777.900	0.062	
778.000	6.412	
778.100	-11.999	
778.200	-0.985	
778.300	-7.812	
778.400	-26.457	
778.500	3.413	
778.600	-17.202	
778.700	-0.445	
778.800	6.566	
778.900	-20.296	
779.000	-19.684	
779.100	-11.615	
779.200	5.430	
779.300	-1.006	
779.400	-9.341	
779.500	-11.068	
779.600	-22.393	
779.700	-8.529	
779.800	8.891	
779.900	-19.429	
780.000	-7.549	
780.100	2.154	
780.200	-13.965	
780.300	21.890	
780.400	8.541	
780.500	5.009	
780.600	5.863	
780.700	3.730	
780.800	14.792	
780.900	13.558	
781.000	14.892	
781.100	6.983	
781.200	16.984	
781.300	13.330	
781.400	22.431	
781.500	23.681	
781.600	28.636	
781.700	28.867	
781.800	24.011	
781.900	16.530	
782.000	31.591	
782.100	15.597	
782.200	26.747	
782.300	26.887	
782.400	23.729	
782.500	17.830	
782.600	33.873	
782.700	22.288	
782.800	25.045	
782.900	21.311	
783.000	19.638	
783.100	21.306	
783.200	23.086	
783.300	30.443	
783.400	22.357	
783.500	25.303	
783.600	11.056	
783.700	13.445	
783.800	35.782	
783.900	22.985	
784.000	21.998	
784.100	15.096	
784.200	21.866	
784.300	13.671	
784.400	9.192	
784.500	37.195	
784.600	24.423	
784.700	10.606	
784.800	7.756	
784.900	24.528	
785.000	15.991	
785.100	15.507	
785.200	21.953	
785.300	7.404	
785.400	6.342	
785.500	11.326	
785.600	15.818	
785.700	16.350	
785.800	15.383	
785.900	33.006	
786.000	24.167	
786.100	25.126	
786.200	7.458	
786.300	12.385	
786.400	5.210	
786.500	8.314	
786.600	14.095	
786.700	11.369	
786.800	10.530	
786.900	4.094	
787.000	24.713	
787.100	30.120	
787.200	17.799	
787.300	13.839	
787.400	24.740	
787.500	23.491	
787.600	30.081	
787.700	16.619	
787.800	25.783	
787.900	17.913	
788.000	20.754	
788.100	22.523	
788.200	17.570	
788.300	24.436	
788.400	40.201	
788.500	-3.680	
788.600	11.807	
788.700	21.698	
788.800	21.982	
788.900	25.430	
789.000	24.376	
789.100	30.057	
789.200	19.748	
789.300	21.812	
789.400	25.451	
789.500	29.649	
789.600	4.612	
789.700	28.590	
789.800	24.426	
789.900	22.449	
790.000	34.400	
790.100	28.799	
790.200	19.728	
790.300	16.584	
790.400	20.960	
790.500	44.919	
790.600	35.426	
790.700	27.369	
790.800	30.108	
790.900	34.663	
791.000	29.106	
791.100	32.225	
791.200	23.810	
791.300	34.204	
791.400	27.465	
791.500	29.306	
791.600	35.149	
791.700	28.707	
791.800	26.611	
791.900	23.123	
792.000	45.819	
792.100	16.453	
792.200	31.850	
792.300	25.555	
792.400	38.688	
792.500	37.601	
792.600	26.315	
792.700	27.304	
792.800	45.895	
792.900	29.939	
793.000	26.313	
793.100	38.073	
793.200	25.373	
793.300	36.935	
793.400	32.602	
793.500	36.294	
793.600	38.270	
793.700	28.533	
793.800	36.078	
793.900	29.506	
794.000	36.067	
794.100	33.908	
794.200	33.836	
794.300	25.732	
794.400	41.693	
794.500	41.154	
794.600	34.877	
794.700	28.481	
794.800	37.343	
794.900	22.676	
795.000	42.610	
795.100	40.890	
795.200	31.073	
795.300	34.918	
795.400	29.790	
795.500	28.867	
795.600	44.036	
795.700	35.319	
795.800	41.820	
795.900	37.380	
796.000	32.895	
796.100	41.656	
796.200	38.513	
796.300	28.754	
796.400	59.076	
796.500	28.030	
796.600	24.462	
796.700	49.101	
796.800	41.598	
796.900	39.689	
797.000	45.157	
797.100	30.191	
797.200	51.049	
797.300	32.935	
797.400	35.961	
797.500	33.311	
797.600	48.228	
797.700	38.693	
797.800	41.760	
797.900	35.193	
798.000	43.624	
798.100	41.806	
798.200	53.238	
798.300	34.623	
798.400	48.004	
798.500	46.343	
798.600	35.275	
798.700	40.990	
798.800	34.918	
798.900	51.140	
799.000	40.171	
799.100	47.344	
799.200	27.309	
799.300	43.526	
799.400	42.989	
799.500	50.975	
799.600	47.457	
799.700	40.725	
799.800	34.447	
799.900	47.195	
800.000	34.001	
